CH1,CH2,CH3,CH4,CH5,CH6,CH7,CH8
3051.2588054692033,-3742.3299993473292,16242.654099622614,3001.6155839929334,331.49870225779426,-3748.1191008161964,-31439.02310365576,1803.6292078274016
2794.5713874442213,-5336.881002001822,15302.562135610708,2992.652535000595,286.9069747273311,-3548.0039446356263,-31152.786681222122,1770.0568896565967
2597.0266817228007,-8346.498510032803,15616.02298116821,2969.071446005788,307.35881968491196,-3402.4717451615184,-28558.352801701592,1710.0201076281135
2394.1846128812203,-10743.74531172188,14582.567786131369,3004.074275736468,224.36679746906742,-3276.6984866081766,-33707.74738238736,1705.4603520310136
2052.2923500712127,-11994.101822024693,15538.28361858628,3014.31137408682,210.91104810899785,-3204.480004577637,-35034.144522794755,1752.8013439656106
1926.0497049122873,-12054.652694145007,15442.349937102195,3023.587347482881,76.08533359082541,-3087.021594466066,-34841.763069734756,1903.2062234405412
2009.779334651192,-12377.858899704152,14791.333066900555,2959.683713894112,53.51007303655583,-2961.4271498577086,-31125.517554612015,1678.3029841365208
2089.2844849398425,-11211.276722626491,15180.655728617652,2923.0268551723275,80.64508918792541,-2828.5236852481175,-29219.025624932387,1597.0767496273963
2024.531485112398,-11393.21991164803,14312.469322232562,2888.091080671017,-20.921231563164685,-2724.297507065386,-32067.062381926913,1730.7178217600476
1970.373211525274,-10491.215317917782,13413.482213823927,2892.1590979194107,-112.5186748813793,-2619.0878521852405,-32218.92012470484,1883.201413345421
1798.085975532888,-10054.305795091737,13029.702784401345,2916.835422327246,-123.53808424103762,-2483.680992345869,-31403.305018145144,2001.4421344662983
1809.0159779200542,-8290.619152225205,12646.973886905544,2865.694634061732,-166.96752112910278,-2361.774585352813,-32820.4725873752,2019.9940812584211
1665.1154556939277,-7208.235991492033,12408.436084296469,2814.844418456818,-238.06841600349046,-2234.861387900197,-31363.40715667052,2075.6722733779116
1504.36171915303,-8069.71687494021,12134.001382231794,2808.0047850611677,-221.37166389058018,-2163.067588988995,-32662.535170467807,2206.631136335798
1485.1839235534621,-8213.95267331318,11949.845370641075,2783.440219368948,-210.97810333836696,-2073.2135816343775,-32933.19242794469,2292.484181671392
1485.4074409846926,-10069.884960048495,11880.040876867823,2761.624918080862,-273.02654224792377,-1937.6726113362677,-33171.30554743442,2349.078795258927
1434.1101905173175,-11235.729529603095,11286.535041721763,2751.119598813033,-362.2099973088501,-1853.540650221148,-34238.020136238345,2574.987863003484
1407.1763400540553,-11399.411344493112,11444.517162115404,2729.2595940387005,-356.08561969313735,-1771.956787822055,-35026.2320057292,2551.406774008678
1344.6361627957917,-10690.257590428448,11173.591683721046,2702.795130181022,-379.73376391731284,-1693.2786520289571,-35374.874494962365,2688.802938986
1291.662531594189,-9726.562185678613,10651.23144693562,2656.459966686962,-373.1623514391393,-1624.9717250449494,-34985.462426272774,2747.2750989958704
1271.4342040678384,-8920.424218203081,9422.332610030926,2615.7797942030306,-387.5345222672535,-1534.693034570994,-36545.189413141576,2801.612186527979
1332.9014976561962,-8568.808947134552,8866.914145166525,2648.569801364529,-406.06411731625303,-1501.0313094276971,-36017.688275437846,2593.0480714469
1299.4856416872526,-7563.360486230879,9712.145311364253,2641.126670904557,-421.0174334655663,-1446.9177393268192,-35285.40046724084,2555.1842185964715
1294.9705895763987,-5064.167384157621,10152.385243915633,2668.775777147757,-437.8035925509687,-1412.3172409723545,-36065.96804058361,2690.9934098120575
1160.2566337738415,-4343.949517247052,10026.924909766014,2626.106299525875,-473.7228437496927,-1342.8480233459486,-37258.165315280276,2588.533019336046
1020.5358875117236,-3628.55962685106,9950.504300028342,2607.1520213575373,-486.23981989859465,-1285.940485354691,-37757.592663621464,2405.963981507062
949.5691030960741,-2887.331121404834,10098.986929594692,2617.6796923684888,-461.2505710870368,-1259.654835441997,-38068.50541046294,2308.420974518119
896.5060649219789,-2385.2439156320047,10307.819265593247,2566.71771804796,-508.3680455904034,-1222.4615348852597,-38383.50852629593,2060.3613293386297
866.3982669352451,-2090.089147692272,9849.94380771779,2579.1899907106153,-567.1978334902426,-1184.6647372642,-38289.69826040854,2024.9338164886128
886.4477805166114,-1183.8377227686478,9653.695503097504,2556.078288321393,-589.0578382645749,-1159.0496396451974,-38640.575923954006,1995.2954051074626
840.5596518850119,-946.4845625450946,9646.542945298132,2568.9752441033866,-629.603900289768,-1130.864091567045,-38406.3743595108,1814.8721346182904
764.8990014135243,-1537.554057690743,9792.343365689716,2584.599112546391,-680.4764676378052,-1111.8874616555847,-39332.183559667086,1637.1087215607597
688.4783916758532,-735.3276452617433,9314.664263407247,2569.154058048371,-655.2637013950169,-1080.5503177970838,-41226.158513197806,1506.619245208457
645.0713065309111,-174.74592773592042,9082.831983735085,2579.1005837381235,-674.5756074533228,-1066.2004987120924,-42382.90592330134,1307.8228418721462
626.9216911150033,103.64503286153274,9334.758480474859,2556.167695293885,-666.9089595621205,-1036.137404211605,-41156.979868232,1205.2059891942733
552.7586074327593,657.2083030467214,9194.411885405296,2533.4136207946312,-678.7777351604542,-1014.8138412722255,-40282.35615982748,1076.5270040349367
509.820908893401,1060.232583298241,8824.155260572152,2537.8839694192393,-680.0517845184675,-1004.0626528300435,-41889.42413863087,942.5059522691937
407.8075532798501,1629.0844457795886,8923.039372148476,2538.688632171669,-632.0402402901793,-995.3678247551813,-41298.84638183393,826.410998488128
339.8135506995648,1837.0450637963452,8573.21224052979,2539.3591844653597,-613.5106452411798,-979.6098458534387,-41883.65738890513,783.7862243524924
323.4520747335002,1779.6010839701344,8426.897730046376,2541.9966901538783,-609.4649797359097,-983.5884561293396,-42630.3620714165,544.3543520184966
-404.05246043517946,-496.186345588347,19599.37182661127,-499.00266522184995,-585.7721320254881,-623.2560052428248,-486.5303925591941,-490.95603769755587
-410.53446594086085,-509.93266760901616,20102.442509081513,-501.50606045163033,-587.6496784478234,-628.1286852436475,-429.06406098986037,-485.68102632051864
-400.4761815354932,-502.06485402970634,19523.487658708553,-511.0726065082912,-592.9917450542298,-627.6816503811867,-419.9669015387834,-492.00656962433874
-403.2701494258731,-515.2523824722995,19611.44176789771,-497.52745017572937,-588.0520098240381,-621.7360867104582,-469.9901026481451,-497.862726322575
-410.91444557395255,-527.568192933094,19709.47651323536,-475.622741915151,-582.7099432176318,-629.0227549685691,-464.3798151242623,-491.22425861503234
-407.4052219036354,-518.5827921976323,20571.516190261613,-500.83550815793916,-585.9732977135955,-626.1617318488201,-490.7325202663255,-488.4526424677755
-415.3624424554373,-495.582848524025,20388.56717279954,-487.7820901740843,-591.4941782649861,-621.0208309305209,-431.8803806233633,-492.0512731105848
-419.89984630941433,-507.74219678295833,19584.530269177572,-476.85208778691816,-593.081152026722,-622.0266593710577,-443.0786039280059,-492.721825404276
-413.77546869370155,-524.9753907308215,19185.5293026882,-456.42259457246035,-597.2609279907304,-628.3522026748778,-441.93866502873095,-494.5546683403652
-380.404316211004,-506.2893334799608,20464.02665758292,-448.57713273627354,-590.845977714418,-621.5125692792278,-394.15063823167316,-490.6431132938333
-388.0039088728373,-469.8112887031608,21132.164963016807,-472.80642228164805,-588.2308237690224,-620.8196652424135,-424.03491878717654,-490.2631336607417
-403.1360389671349,-486.3515786142098,19958.318469424154,-484.7869565955971,-586.7556087229018,-623.7924470777778,-397.2128270395295,-493.83941256042795
-410.4003554821226,-504.79176669071717,20794.296013968946,-486.2845233848407,-582.0170391808175,-624.9994412064219,-303.91665124396394,-495.8063659552554
-399.4480013518334,-493.63824687232056,20951.249954178926,-461.8764198944819,-586.308573860441,-628.1286852436475,-316.52303436535806,-489.2126017339588
-419.8327910800452,-403.4936668571035,21394.060337189458,-436.68600539481673,-587.40380927347,-623.9712610227621,-361.7853141895124,-484.83166008184315
-432.37211897207015,-487.51386925660785,21788.412141109235,-427.1865145675251,-591.427123035617,-617.3104415720965,-286.59405032360854,-478.28259934679267
-422.4479450254408,-499.74027274491027,20804.86838846614,-430.8522004397035,-592.3435445036616,-617.1316276271122,-332.50453069833105,-483.6693694394451
-416.88236098780396,-451.1922866816692,20487.51833960523,-301.9049943628904,-579.1336643179455,-623.300708729071,-304.8330727120085,-489.3690639358201
-414.82600062048436,-501.5507639378764,20481.796293365733,-364.6463373092614,-582.2182048689249,-625.8264557019744,-348.1507508844585,-494.3982061385039
-422.15737236484125,-513.3301325637182,20213.08363754056,-312.9691072087948,-582.8217019332469,-623.4348191878091,-348.01664042572025,-491.0901481562941
-429.6452063110594,-507.3175136636206,20441.473748771772,-326.3354495963722,-581.704114777095,-617.3327933152194,-275.6416961933193,-491.4254243031397
-428.3488052099231,-501.4837087085073,20800.107467180933,-342.763980791806,-579.9159753272519,-611.8119127638288,-312.5891275757031,-489.9949127432652
-427.63354942998586,-530.9656578877959,21104.940539892945,-381.56660685340205,-579.8265683547597,-618.226863040141,-376.3139472194879,-486.01630246736426
-426.3147965857265,-495.11346191844115,21391.64634893217,-364.0875437311854,-584.5874896399671,-628.3745544180009,-406.62291089432904,-489.6372848532966
-427.52179071437064,-476.5391633831956,21532.819958497283,-394.664728323503,-582.1958531258018,-629.7380107485063,-403.80659126082605,-487.580924485977
-421.2633026399197,-498.53327861626616,21030.84451144007,-334.3150218912972,-579.0442573454534,-633.5378070794229,-399.0233182324957,-497.57215366197545
-418.35757603392454,-407.5616841054967,21405.57148489782,-175.5282387452268,-576.6079173450421,-629.7380107485063,-306.97884005182027,-492.1630318262
-422.9843868603937,-402.04080355410593,20997.45100721425,1337.952991602003,-575.7361993632436,-629.8050659778754,-253.6028774740027,-491.33601733064756
-424.5266571358834,-441.6927958543775,21031.224491073164,515.2076789860535,-580.3406584465896,-628.9109962529539,-371.5083224480344,-491.60423824812403
-420.0116050250295,-440.0834703495187,21184.445690181594,-256.9109354562125,-575.5797371613822,-621.7360867104582,-346.0496870308928,-495.89577292774754
-412.6802332806726,-284.35887601130463,21184.17746926412,-261.89537417265024,-568.9859729400857,-620.8643687286597,-417.2399888777726,-495.9404764139936
-375.8892641001501,-259.7049033465924,21499.538212987078,239.38716884774976,-573.0763419316019,-632.0402402901793,-446.7219380570613,-502.2213162315676
9545.334252437011,3738.373740814551,17022.551120671695,301.2791455554453,-554.3008777082489,-246.1373952709076,-336.61725143297025,-551.3057441297617
8870.646886268072,3714.2115064985455,16969.175158093876,517.5099085277265,-557.8771566079351,-267.8856413296248,-338.5395013415516,-557.184252571121
8785.330282767432,3614.2098077660685,17412.79020385684,396.83284740643785,-555.6196305525083,-253.98285710709436,-330.0011354685507,-554.5914503688484
8680.277090089148,3358.371755979762,17254.31634511449,347.43549510452124,-554.6808573413406,-265.5163565585826,-334.7173532675119,-556.1560723874612
8862.30968608318,3628.8949029979053,17039.091410582743,389.68028960706533,-551.4398545884999,-336.1925683136325,-308.38699986857176,-559.7994065165166
9087.458794561553,3540.7172763775156,17144.323417206015,404.2983296095329,-555.9325549562308,-327.4753884956472,-320.27812721002863,-556.5584037636759
8966.133532889695,3587.074791614699,16917.34146579155,339.70179198394965,-556.3125345893225,-267.19273729281053,-350.36357345363933,-557.6312874335817
8969.218073440674,3602.2292734521197,16532.377393983446,512.6372285269039,-558.0559705529195,-281.65431509341687,-347.1225707007987,-554.2338224788798
9101.56274447219,3289.8636633076467,16737.566395852948,546.902450734523,-551.462206331623,-222.22103012925567,-331.07401913845655,-558.3241914703959
9342.93921845789,3457.814661134163,16875.230781747745,438.8317727346285,-551.3057441297617,-218.980027376415,-417.1952853915265,-555.0608369744323
9298.07927000995,3715.7314250309123,16789.73536430212,334.35972537754327,-554.7032090844637,-310.1751393184149,-420.4586398874903,-552.6021452308979
9307.176429461028,3499.3665515998932,16830.728461189774,183.08312792081404,-562.3922087187891,-303.0225815190424,-361.29357584080554,-557.8101013785661
8843.534221859825,3387.7866499296815,16851.403823578585,283.7106754607365,-556.5360520205528,-284.31417252505855,-361.51709327203594,-558.5924123878724
9083.90486740499,3282.01820147146,16838.9986061453,428.90759878799906,-549.8305290836411,-267.7962343571326,-325.82135950454233,-549.3164389918112
9514.533550413462,3026.493074088876,17074.854199579608,413.2390268587486,-551.6186685334842,-342.8980912505442,-324.41319968779084,-552.4680347721597
9433.284964161214,3096.230512632758,16642.19150794694,561.6769529388519,-556.6925142224142,-258.43085398857914,-372.55885437481726,-554.0103050476495
9528.99512821407,3183.5364212713494,16985.313116628713,455.21560044381624,-558.0559705529195,-222.19867838613263,-381.7007173121403,-549.0482180743347
9244.479790000903,3377.1025167168686,16796.172666321556,309.81751142844627,-560.4252553239617,-287.21989913105364,-335.41025730432614,-551.7304272490994
8942.775961326119,3207.989228247954,16380.74316863675,352.75520996780455,-570.0141531237456,-316.2548134478816,-359.05840152850163,-550.1658052304867
9448.774722145481,3383.7633361675344,16868.167630920863,437.84829603721477,-570.4388362430833,-324.502606660283,-320.4345894118899,-550.5904883498245
9305.120069093708,3524.959297475773,17033.52582654511,403.0466319946427,-556.6701624792911,-240.57181123327086,-268.55619362331595,-553.8538428457881
9189.539205404473,3568.0311064738694,16801.313567239853,503.1600894427352,-557.1171973417519,-265.2481356411061,-335.4773125336952,-548.9811628449656
9011.39581271385,3417.1568403933547,16885.445528354972,576.0491237669661,-562.369856975666,-338.0030595065987,-327.5647954681394,-550.881061010424
8499.295026021899,3418.1626688338915,17253.064647499603,289.90210830581833,-562.9510022968651,-312.56677583258005,-340.4393995070099,-547.7071134869524
8396.812283802765,3279.134826608588,16867.83235477402,236.70495967298507,-560.8722901864224,-315.53955766794434,-397.6151584157442,-552.5127382584058
8752.741441294042,3409.043157639692,16866.133622296667,320.7251620724894,-562.2133947738048,-307.60468885926537,-395.60350153467067,-554.3679329376181
9001.136362620375,3212.750149533161,16982.42974176584,429.10876447610644,-559.9335169752547,-257.0226941718277,-360.399506115884,-553.786787616419
8581.527088971561,3507.368475637941,16838.79744045719,596.0315821189632,-558.5477089016264,-291.66789601253845,-328.23534776183055,-551.7751307353456
8776.702509921939,3513.1799288499315,17358.430764581608,561.2746215626371,-557.8324531216891,-322.4015428067173,-297.0993695914369,-548.020037890675
8374.482892422848,3231.5256137565143,17312.587339436253,441.20105750567063,-556.9830868830136,-350.2741664811472,-321.66393528365705,-554.9714300019401
8838.527431400265,3176.8756018206836,16506.315261501983,204.6749117776699,-552.9821248639896,-302.84376757405806,-277.80981527625414,-555.7090375250004
8968.458114174491,3262.594536697539,16291.2467891721,500.63434246983184,-554.8596712863249,-212.45331838448755,-267.19273729281053,-551.2386889003926
9108.46943309721,3244.1096451347858,16619.415081704563,423.5431804384697,-560.626421012069,-275.30642004647376,-262.76709215444873,-550.1658052304867
8958.533940227862,3226.78704421443,16371.377788268197,322.4909497792095,-557.6759909198279,-332.34806849646975,-270.6572574768816,-556.8936799105214
8987.881778948413,3012.4785311507303,16226.538492830903,582.6205362451396,-559.2182611953175,-326.8942431744482,-302.8661193171811,-557.4748252317205
8351.32648654738,3376.8566475425155,16525.04602223909,582.2182048689249,-553.6303254145578,-331.2081295971948,-302.10616005099774,-547.9976861475519
8265.629903413648,3490.828185726892,16751.156255671754,494.3758543953809,-552.6915522033901,-319.6969818888296,-342.2945941862222,-548.5564797256279
8550.100538140568,3442.86134498485,17016.449094799107,396.1846468558697,-560.8946419295455,-314.3996187686693,-342.3169459293452,-551.6186685334842
8458.436039592983,3321.603138542362,16559.82533453854,353.2916518027575,-558.2571362410268,-231.92168664465467,-294.0148290404575,-555.1502439469244
8373.544119211681,3246.5012816489507,16253.986433385995,340.2382338189026,-554.3008777082489,-245.7350638946929,-313.5279007868708,-552.4903865152828
8757.681176524233,3561.3702870232037,16333.536287160892,271.9313068348948,-558.5030054153802,-208.13943196174097,-327.27422280753984,-551.9092411940837
8241.73589001512,3602.1622182227507,16400.993847906222,387.10983914791575,-554.390284680741,-228.7924426074292,-385.4111066705648,-552.624496974021
8572.69815043796,3354.728421850706,16329.155345508776,301.03327638109187,-559.8217582596396,-316.29951693412767,-322.3344875773482,-552.1327586253142
9323.537905427092,3356.382450841811,16237.244977786839,336.3266787723707,-555.9102032131077,-329.5541006060899,-280.33556224915753,-545.2260700002951
8592.09946346876,3329.6721178097796,16122.178204189433,471.93470429984956,-557.139549084875,-296.36176206837666,-280.11204481792714,-546.0307327527245
8303.694921952183,3328.5992341398737,16821.74306045431,520.0356555006299,-557.743046149197,-234.6038958194194,-268.10915876085517,-547.7741687163215
8615.27822108735,3293.506997436702,16823.374737702292,573.2998593628323,-559.441778626548,-247.43379637204387,-261.04600793397475,-551.8421859647146
8523.680777769134,3074.571673546533,16267.598644947926,531.8150241264715,-557.2736595436131,-298.0828462888507,-313.9972873924546,-553.3621044970813
8667.916576142108,2969.5631843544948,16212.658060351496,538.0288087146764,-554.9937817450632,-278.45801582682225,-300.5638897755081,-552.3562760565445
8961.596129035719,3085.904007309914,16884.797327804405,446.67723457081524,-552.2445173409293,-256.5086040799978,-269.8749464675752,-553.4738632126965
8498.87034290256,3290.154235968246,16363.353512487025,346.58612886584575,-558.2124327547808,-184.3795290219503,-326.2683943670031,-549.1152733037038
8426.294232982053,3342.2561491880506,15997.120201416026,430.6733864947192,-557.4077700023514,-233.37454994765224,-329.2188244592443,-549.8752325698872
8012.876392178319,3087.4686293285267,16391.8519849689,472.4264426485564,-561.162862847022,-326.20133913763397,-302.06145656475167,-554.3008777082489
8003.332197864782,2935.387369119368,16408.772254513042,572.0705134910652,-554.1220637632646,-315.9865925304051,-338.2489286809521,-549.4952529367955
7787.190841864994,3156.8931434686865,16265.385822378745,542.8344334861299,-558.950040277841,-308.27524115295654,-280.04498958855805,-550.366970918594
8975.320099313265,2995.3570959184826,16176.224719060941,293.34427674676635,-562.7274848656347,-284.6270969287811,-263.75056885186245,-554.5020433963563
8599.810814846207,3359.6234535946523,16014.755726740104,265.8292809623051,-556.2231276168303,-264.7340455492762,-260.7554352733752,-552.2445173409293
8396.387600683427,3496.2149558195447,16302.601474678606,229.23947746988998,-559.2182611953175,-346.161445746508,-334.56089106565065,-554.926726515694
8399.762713895005,3566.3994292258876,15918.285603421067,531.524451465872,-559.0394472503332,-332.05749583587027,-370.0778108881599,-553.4738632126965
8205.459010926426,3091.4472396044275,16158.70095245248,580.2065479878514,-554.4573399101102,-308.5881655566791,-338.85242574527416,-553.3397527539582
8323.029179753612,3109.730965479074,16438.567128096052,372.2906334573408,-559.6205925715323,-304.16252041831734,-304.6989622532703,-552.9150696346205
8748.204037440064,3247.3729996307493,16526.476533798967,356.9573376749359,-561.162862847022,-371.79889510863393,-279.41914078111296,-549.7411221111489
8273.788289653558,3133.535571905111,16741.768523560077,376.4927611644722,-554.6808573413406,-383.15358061513786,-376.0457263020114,-548.8694041293504
8782.424556161437,3125.5112961239397,16682.245831623426,324.9496415227438,-558.6147641309955,-352.75520996780455,-363.57345363935553,-550.5681366067014
8634.791292833763,2889.9015718639835,17448.195364963733,211.46984168707382,-558.0336188097965,-315.0478193192375,-293.16546280178204,-550.0540465148715
8333.020408929611,3145.4043475034446,16750.195130717464,313.08086592441003,-556.4913485343068,-338.87477748839717,-245.220973802863,-554.6585055982175
8666.843692472201,3188.2749908134333,16565.569732521162,384.62879566125844,-557.5418804610896,-302.46378794096637,-242.20348848125272,-549.2940872486881
8566.797290253478,2961.024818481494,16393.349551758143,422.2914828235795,-550.881061010424,-258.0955778417336,-296.22765160963843,-548.8470523862273
8703.96993779957,2804.8755410239423,16258.009747148142,255.12279600636936,-555.1055404606783,-294.4618639029183,-315.4054472092061,-552.7139039465131
8726.053460005132,3250.09991229176,16563.535723896963,303.2237472071497,-559.9111652321318,-294.19364298544184,-316.70184831034237,-555.8654997268617
8441.49341830572,3167.309055764023,16745.09893328541,282.59308830458457,-559.9558687183778,-266.924516375334,-315.74072335605166,-552.2221655978063
8236.751451298682,3486.715464992253,16648.405292535143,180.6020844341567,-559.0841507365793,-222.33278884487086,-306.4647499599904,-547.5506512850911
8170.277367250763,3138.877638511517,16275.846438160328,214.0849956324694,-555.5302235800161,-248.3055143538424,-247.36674114267475,-550.903412753547
8253.358796439099,3311.813075054471,16057.782832251954,348.59778574691927,-554.2338224788798,-362.0758868501119,-257.7155982086419,-552.1104068821911
8619.592107510098,3231.927945132729,16364.806375790024,408.0981259404496,-562.8392435812499,-318.4899877601855,-341.13230354382415,-557.6983426629508
8296.587067639057,2891.265028194489,16393.416606987514,332.34806849646975,-557.6312874335817,-289.16450078275807,-358.3431457485643,-549.6517151386568
8066.364113471754,2863.03477663009,16634.591915285106,456.3778910862143,-558.9276885347181,-255.61453435507622,-335.0973329006036,-544.9354973396955
8084.13374925457,3318.49624624826,16491.451352325163,354.1186662983099,-554.9714300019401,-311.2703747314438,-316.29951693412767,-550.0316947717484
7872.350983163773,3213.644219258083,15746.42305054802,261.3142288514512,-552.6692004602671,-285.49881491057965,-303.71548555585656,-551.6186685334842
8140.236624493398,2969.9878674738325,16322.427470828741,338.67361180028985,-560.3805518377155,-304.56485179453205,-300.7650554636154,-550.5457848635783
8367.777369485937,3024.146141060957,16815.19399971926,351.9952507016212,-557.8101013785661,-305.4812732625767,-260.04017949343796,-553.9879533045264
8506.872266940609,2823.1816186417113,16153.582403277303,301.25679381232226,-555.7760927543695,-232.88281159894538,-270.38903655940516,-556.1337206443382
8361.25066049401,2922.155137190529,15867.70360873363,309.05755216226294,-561.2299180763911,-276.98280078070167,-270.43374004565123,-557.2289560573671
8622.028447510507,3042.2734047337417,16352.512917072352,260.19664169529926,-553.786787616419,-340.3723442776408,-303.0225815190424,-551.7751307353456
8485.571055744353,3026.7836467494753,16469.859568468306,240.57181123327086,-549.9646395423794,-301.122683353584,-319.83109234756785,-552.624496974021
8321.1739850744,2741.642459728864,16525.649519303413,261.3589323376973,-550.2999156892249,-291.9361169300149,-306.21888078563694,-552.8927178914975
8568.473670987707,2974.704085272794,16116.366750977444,170.9237796618807,-550.2328604598558,-301.7708839041522,-291.84670995752276,-551.6186685334842
8424.95312839467,2839.2078184609304,15803.12942285117,60.34970643220583,-553.4738632126965,-296.9652591326987,-233.50866040639048,-550.2328604598558
8623.14603466666,2847.6567773614393,16476.341573973987,92.5585682725053,-560.04527569087,-286.54934683736246,-293.74660812298106,-547.1259681657534
8392.431342150649,3426.6116277344004,16121.887631528834,122.68871800236214,-560.8499384432994,-303.4472646383801,-317.32769711778747,-542.0744742199465
8456.402030968786,3238.074674491565,15988.98416691924,273.49592885350756,-560.1123309202391,-256.061569217537,-291.8020064712767,-550.2328604598558
8412.257338300784,2997.5699184876635,16474.75460021225,353.9175006102026,-554.904374772571,-237.19669802169193,-263.72821710873944,-550.0763982579946
8303.024369658493,2965.8080915098244,16558.26071251993,466.81615512467357,-559.7994065165166,-273.47357711038455,-314.51137748428454,-556.0219619287229
8419.65576527451,3267.4672166983614,16120.770044372683,287.0857886723154,-552.2445173409293,-287.2422508741767,-276.6475246338561,-552.5127382584058
8438.654746929093,3109.5968550203356,16158.589193736865,327.49774023877023,-556.8266246811523,-342.8757395074212,-266.7904059165958,-550.0093430286254
8176.915834958306,3056.332651158133,16565.837953438637,395.42468758968636,-556.7819211949063,-339.8359024426879,-297.3675905089134,-546.3883606426931
7855.63187930774,2846.1815623153184,16705.938679333845,229.46299490112037,-551.3504476160077,-273.69709454161494,-294.97595399474824,-547.1259681657534
7601.447856512538,2977.2745357319436,16297.974663852136,196.2259528771611,-549.4505494505495,-307.58233711614236,-229.77591930484292,-544.8013868809574
7928.789134549446,2931.6099245315745,16238.787248062328,445.7831648458937,-552.1774621115602,-295.73591326093157,-271.1713475687115,-548.601183211874
8213.036251845137,3022.9167951891895,16177.007030070248,442.1398307168383,-557.3407147729822,-295.8923754627928,-266.81275765971884,-552.8480144052514
8242.719366712532,3160.67058805648,15907.489711492639,173.4271748916611,-558.8382815622259,-331.8563301477629,-260.48721435589874,-550.6128400929475
8098.3941613670695,2971.820710409922,15602.12019694568,328.1906442755845,-557.4301217454744,-331.09637088157956,-297.99343931635855,-551.2610406435156
8362.748227283253,2718.9777922021026,15768.551276239828,554.2338224788798,-558.2124327547808,-298.8875090412801,-342.2498906999761,-553.0715318364818
7998.794794010805,3087.2004084110504,16037.018062890651,517.4652050414803,-551.6857237628534,-334.0915044600668,-341.55698666316187,-551.5069098178691
7862.158588299667,2982.5271953658576,16350.009521842572,397.68221364511334,-550.6128400929475,-261.06835967709776,-292.8078349118134,-555.6866857818774
7746.600076353555,2833.91045534077,16284.98830109765,459.75300429779315,-553.1162353227279,-329.5541006060899,-314.6007844567767,-547.2377268813685
7660.322347898623,3132.4179847489586,15733.302577334796,302.7767123446889,-550.1211017442406,-370.10016263128296,-292.2043378474914,-541.4486254125014
7777.423130120225,3231.413855040899,15881.628744699283,427.7676598887241,-557.3854182592283,-321.7533422561492,-240.86238389387037,-551.6857237628534
7833.637764074669,3201.306057054165,15856.281867997757,322.8262259260551,-554.5243951394793,-303.6037268402414,-247.5679068307821,-555.2843544056626
8230.247094049877,3054.2539390476904,15656.636098422772,403.18074245338096,-552.624496974021,-349.96124207742463,-293.27722151739727,-555.9102032131077
8100.472873477512,2946.831461598364,15946.269985811112,346.2285009758771,-548.8694041293504,-299.1110264725105,-299.2227851881257,-552.8480144052514
8181.855570188497,2955.7721588475797,15869.31293423849,269.4949668344836,-545.762511835248,-292.87489014118256,-289.3656664708654,-549.0258663312117
8239.83599184966,2776.064144138345,16122.37936987754,234.80506150752674,-558.0336188097965,-389.3450134602197,-272.1771760092483,-547.8412239456907
8008.651912728065,3012.7020485819608,16165.76410327936,204.02671122710177,-560.604069268946,-326.42485656886436,-301.01092463796886,-549.204680276196
8153.401801192868,2859.8161256203725,16201.459837046854,430.13694465976624,-558.5700606447494,-308.3646481254487,-323.0720951004085,-543.6390962385593
8299.738663419406,2592.2210569513472,16083.688502531557,521.9802571523343,-556.9160316536445,-317.3500488609105,-277.40748390003944,-548.668238441243
8360.289535539718,2772.554920468028,16086.303656476952,196.2259528771611,-551.9986481665759,-309.6163457403389,-225.32792242335813,-548.1094448631671
7995.866715661687,2918.802375722073,15724.786563204918,217.63892278903265,-552.9374213777436,-298.7533985825419,-270.21022261442084,-548.8917558724735
7837.61637435057,2814.4867905668493,15606.054103735334,501.327246506646,-556.647810736168,-295.3112301415938,-269.80789123820614,-545.2931252296642
7876.463703898412,2987.1093027060806,15662.849883010977,409.32747181221674,-552.4009795427907,-312.87970023630265,-265.58341178795166,-551.3504476160077
8223.183943222997,3195.427548612806,15300.416368270895,448.68889145188876,-554.3008777082489,-387.8697984140991,-221.39401563370322,-552.5574417446519
8086.525385768736,2978.9956199524177,15821.569610927678,314.9584123467453,-548.9811628449656,-331.0069639090874,-269.24909766013013,-552.065703395945
8101.3669432024335,2964.0870072893504,16678.37898006314,337.31015546978443,-550.344619175471,-326.82718794507906,-248.68549398693406,-551.9986481665759
7712.893647724011,2940.662380496405,16110.220021618605,279.82147215732766,-555.9772584424769,-309.03520041913987,-287.0857886723154,-553.4738632126965
7639.691688996058,3081.1207342815837,16348.646065512066,411.4508874089055,-553.5632701851887,-279.64265821234335,-291.980820416261,-548.8694041293504
7962.42850794962,2749.4655698219285,15779.503630370118,435.0766798899579,-557.0724938555057,-263.90703105372376,-320.3451824393977,-549.8081773405181
7708.266836897543,2773.9183767985332,15740.566893849784,364.37811639178494,-556.044313671846,-266.83510940284185,-271.26075454120365,-554.7032090844637
7648.7217932177655,3053.963366387091,15498.49751582727,199.57871434561696,-553.0044766071127,-271.1266440824654,-239.49892756336496,-554.3008777082489
7924.5870068423155,2850.2048760774655,15959.010479391245,394.37415566290355,-553.0715318364818,-273.71944628473796,-251.3900549048218,-550.0316947717484
8440.979328213889,2607.1296696144145,15854.069045428576,475.04159659395197,-555.5302235800161,-338.51714959842855,-276.6922281201022,-552.6915522033901
8218.490077167158,2839.9677777271136,15710.123819716204,530.4515677959661,-554.0997120201416,-403.0913354808888,-236.16851783803213,-551.1269301847774
8111.916965956508,3017.4629698671683,15883.930974240957,361.51709327203594,-561.2746215626371,-321.5745283111649,-241.9129158206532,-547.7071134869524
8269.02736836835,2983.5553755495175,16275.801734674082,480.3166079709892,-560.0899791771161,-327.1624640919247,-264.8905077511375,-545.4272356884024
8058.675113837428,3068.73786859142,16111.404664004125,556.8489764242754,-558.301839727273,-356.1079714362604,-232.7263493970841,-547.3718373401068
7568.456683662932,2910.845155170271,16318.024177433503,443.123307414252,-557.2960112867362,-377.49858960500893,-264.95756298050657,-548.0423896337979
7663.429240192725,2599.977111815042,15956.976470767047,204.85372572265422,-560.626421012069,-309.86221491469234,-307.1576539968046,-547.4165408263528
8054.517689616541,2860.151401767218,15908.115560300084,320.27812721002863,-559.3076681678097,-330.783446477857,-300.20626188553945,-550.2328604598558
7721.052033963921,3000.073313717444,16188.093494659275,438.89882796399763,-557.9889153235504,-331.2751848265639,-234.2686196725738,-548.7129419274892
7752.433881308668,2933.621581412648,16258.94852035931,269.78553949508307,-559.9782204615009,-311.29272647456685,-246.67383710586054,-548.5564797256279
7527.485938518402,2773.0466588167346,16038.023891331188,347.01081198518347,-559.1959094521945,-365.65216574979814,-281.76607380903204,-550.0540465148715
7895.730906470471,2755.2770230339183,15892.625802315819,325.4637316145737,-555.9102032131077,-285.72233234181004,-285.5882218830718,-544.8907938534495
8130.401857519261,2903.6031903984067,16001.344680866281,403.42661162773436,-552.3562760565445,-285.94584977304044,-246.33856095901496,-545.9189740371093
7830.866147927412,2818.398345613381,16235.210969162643,146.98506277710572,-557.4301217454744,-304.67661051014727,-252.48529031785074,-552.1774621115602
7937.729831798662,2936.1473283855516,16015.068651143827,130.22125543482633,-561.3640285351293,-355.50447437193833,-255.07809252012328,-553.227994038343
7961.4226795090835,2643.6300661343375,15993.320405085109,481.56830558587944,-554.6808573413406,-357.9408143723496,-235.56502077371007,-552.1104068821911
7612.623728074057,2634.577610169507,15915.402228558196,356.1303231793834,-552.9150696346205,-342.00402152562265,-245.9138778396772,-549.3834942211803
7796.35505654544,3052.3763926253555,16152.263650433044,449.4488507180721,-557.5418804610896,-365.4510000616908,-257.51443252053457,-553.9208980751573
7805.4745677396395,2804.115581757759,16096.428996111688,337.3772106991536,-555.3961131212778,-388.51799896466724,-310.1751393184149,-551.6633720197303
7993.296265202537,2786.3235942318197,15834.712435884025,258.2743917867179,-556.6925142224142,-280.8720040841105,-331.6104609734095,-546.7683402757848
7565.819177974414,2820.5888164394387,15904.114598281061,197.2094295745748,-552.3786277996676,-216.90131526597233,-304.0284099595791,-547.9529826613058
7901.6988218843235,3063.082877581291,15704.200607788598,290.70677105824774,-552.043351652822,-260.84484224586737,-268.6903040820542,-553.9656015614033
7708.9150374481105,3004.9906972045123,15852.906754786178,520.5944490787058,-550.6798953223166,-316.478330879112,-285.4764631674566,-553.6973806439269
7566.176805864382,3120.705671352486,15831.024398268723,406.24293126123735,-555.1055404606783,-365.76392446541337,-285.8117393143022,-552.1998138546833
7742.643817820777,2969.1832047214034,15740.790411281014,288.76216940654336,-555.9549066993538,-321.84274922864137,-197.7235196664047,-553.227994038343
7783.726321680922,2847.522666902701,15251.220181657087,142.96174901495868,-558.3688949566421,-304.31898262017864,-178.72453801182138,-554.5243951394793
7675.208608818567,2723.202271652357,15834.24304927844,230.7370442591336,-557.139549084875,-265.35989435672127,-170.67791048752727,-548.7799971568583
7688.239675059299,3151.0593385135735,15766.561971101877,319.9875545494291,-554.1891189926338,-327.9894785874771,-235.16268939749537,-553.0938835796048
7859.610489583641,2755.0982090889343,16471.535949202535,350.2071112517781,-556.9607351398906,-342.80868427805206,-260.7330835302522,-555.9772584424769
8044.593515669912,2669.155756780848,16226.560844574025,389.88145529517266,-556.4466450480606,-283.88948940572084,-289.05274206714284,-546.7012850464156
8105.546719166442,2541.4602483189256,15907.243842318287,295.6912097746855,-558.7265228466107,-288.02456188348305,-234.53684059005028,-547.7741687163215
7950.827953268763,2642.065444115725,15466.802744078801,244.79629068352526,-560.5817175258229,-320.88162427435066,-237.4649189391684,-553.5409184420656
7882.073991422295,2767.078743402883,15663.363973102807,160.66432956840572,-559.8441100027626,-344.75328592975654,-274.0100189453375,-550.4340261479632
7888.779514359207,2913.3038469138055,15621.700323921461,392.921292359906,-560.1570344064852,-319.02642959513844,-251.88179325352868,-551.6410202766073
7926.106925374682,2810.575235520317,15074.417893553848,370.14486611752903,-557.1171973417519,-316.8806622553267,-248.8196044456723,-550.3893226617171
7596.5528247685925,2840.258350387713,15446.976747928664,436.283674018602,-552.2892208271754,-356.08561969313735,-211.53689691644294,-549.6517151386568
7446.170297036784,2763.7930371637963,16051.211419773781,554.3679329376181,-557.3854182592283,-343.0992569386516,-217.6612745321557,-545.7401600921249
7278.040485265284,2811.335194786501,15703.395945036169,548.064741376921,-552.8033109190053,-276.6475246338561,-222.6457132485934,-549.9199360561332
7475.473432271089,2619.534887047701,15473.307101327604,406.62291089432904,-557.5195287179665,-277.0945594963169,-262.1859468332497,-550.3893226617171
7454.306331533571,2830.08830726673,15558.780167030107,340.72997216760945,-552.088055139068,-321.0157347330889,-300.85446243610755,-555.3737613781548
7769.488261311547,2994.865357569776,15297.711807353007,225.0820532490047,-548.4894244962587,-295.5123958297012,-179.73036645235817,-552.7139039465131
7602.967775044905,2988.852738669678,15420.132304437895,331.3869435421791,-548.1765000925362,-319.5181679438453,-224.7467771021591,-550.322267432348
7714.346511027009,2777.4276004688504,15699.618500448376,419.4751631900765,-558.9723920209641,-381.1866272203104,-251.77003453791346,-549.3164389918112
7784.396873974614,2806.55192175817,15844.793072032515,187.2182003985763,-562.5039674344043,-360.8241892352217,-240.54945949014783,-549.5623081661646
7170.282731669112,2948.0608074701313,15995.197951507445,64.8424067999367,-553.4738632126965,-344.6862307003874,-207.15595526432725,-551.6857237628534
7631.980337618609,2639.226772739099,16251.326575954354,306.6435639049747,-547.4165408263528,-327.02835363318644,-205.68074021820667,-553.9432498182803
7846.22179545294,2658.561030540528,15797.116803951072,221.34931214745714,-550.4563778910862,-252.39588334535858,-274.16648114719874,-553.8091393595421
7646.151342758616,2697.520118803985,15544.407996201991,281.69901857966295,-554.6808573413406,-272.6465626148321,-292.49491050809087,-552.4456830290367
7771.544621678866,2538.6215769422997,15323.773939834471,324.9496415227438,-552.6692004602671,-255.79334830006053,-201.70212994230567,-550.4340261479632
8103.982097147828,2414.9046787562775,15565.35157950828,500.0531971486328,-551.7974824784685,-248.8196044456723,-249.98189508807033,-552.2892208271754
7756.971285162645,2918.04241645589,15516.781241701916,531.6138584383641,-558.3241914703959,-302.50849142721245,-217.99655067900127,-551.7304272490994
7333.7410291278975,2259.805933225509,15655.920842642834,298.9322125275262,-562.0345808288205,-290.5056053701404,-204.20552517208608,-548.4894244962587
7293.843167653273,2272.1887989156726,15875.28084965234,255.27925820823063,-554.390284680741,-290.3714949114022,-211.76041434767333,-552.8927178914975
7287.875252239422,2758.7862467042355,15834.488918452793,365.83097969478246,-552.1327586253142,-291.44437858130806,-228.81479435055223,-552.4456830290367
7572.770570085679,2683.6396863245777,15844.256630197562,394.7094318097491,-556.3125345893225,-251.41240664794483,-323.2509090453928,-549.182328533073
7749.103471583335,2924.010331869741,15767.344282111184,592.1423788155543,-561.744008168221,-254.6310576576625,-254.6310576576625,-549.15997678995
7544.808539438757,3114.5812937367737,15672.774056957605,508.7927287097412,-560.067627433993,-302.0167530785056,-219.2706000370145,-548.5117762393818
7879.6152996787605,2810.2846628597176,15678.02671659152,485.7257298067647,-554.345581194495,-323.38501950413104,-186.88292425173069,-551.5069098178691
7841.416170681487,2652.1684320073387,15200.392317795295,384.00294685381334,-550.903412753547,-325.9107664770345,-218.84591691767676,-550.0316947717484
7518.366427324201,2471.8792719769044,15753.687367063007,308.5881655566791,-552.5574417446519,-277.00515252382473,-247.9031829776277,-554.5914503688484
7863.700858575156,3004.5436623420514,15759.699985963105,287.5328235347762,-553.3621044970813,-265.4493013292134,-227.07135838695518,-553.5632701851887
7918.127353079757,2698.8612233913673,15869.75996910095,229.79827104796595,-552.020999909699,-313.25967986939435,-223.87505912036056,-556.1113689012151
7720.537943872091,2482.630460419086,15544.475051431362,361.8523694188815,-551.1716336710234,-279.19562334988257,-192.8731914087052,-551.2833923866386
7416.375423453773,2325.05067140166,15604.064798597383,215.8060798529434,-553.6303254145578,-315.89718555791296,-207.6476936130341,-550.6128400929475
7172.741423412646,2455.5177960108394,15302.450376895093,179.48449727800474,-547.8859274319367,-345.98263180152367,-233.6427708651287,-554.7926160569558
7511.347979983567,2825.5732551558767,15326.277335064251,320.1440167512904,-554.6138021119715,-340.2382338189026,-194.7954413172866,-552.8033109190053
7641.837456335869,2761.5802145946154,15661.508778423595,232.36872150711545,-560.7158279845612,-293.9924772973345,-238.47074737970516,-547.9976861475519
7511.996180534135,2792.2915096456713,15806.95157092521,177.31637819506992,-559.3523716540558,-309.9963253734306,-239.65538976522623,-546.924802477646
7569.507215589715,2802.0368696473165,15615.151263186412,226.46786132263313,-556.7595694517832,-330.4258185878884,-212.60978058634882,-549.4952529367955
7366.709850234381,2504.4457617071726,15475.40816518117,278.8156437167909,-555.1502439469244,-327.27422280753984,-242.71757857308262,-550.0540465148715
7428.892399602675,2617.634988882243,15843.228450013901,490.0172644863882,-553.2503457814661,-343.4345330854972,-308.7669795016634,-548.8470523862273
7515.505404204452,2666.674713294191,15601.963734743818,277.742760046885,-555.4184648644009,-299.2227851881257,-237.7554915997679,-547.1706716519994
7340.178331147333,2670.161585221385,15721.34439476397,321.88745271488744,-560.1123309202391,-333.2197864782683,-226.08788168954146,-548.6458866981201
7315.2114340788985,2875.328235347762,15679.457228151394,72.21848203053963,-555.0161334881861,-322.9603363847933,-239.1860031596424,-548.601183211874
7547.982486962228,3077.6562140975125,15330.61357323012,260.3307521540375,-554.0103050476495,-309.3704765659855,-222.60100976234733,-549.0705698174578
7609.1368561468635,2270.758287355798,15859.83579515432,292.49491050809087,-551.529261560992,-291.95846867313793,-224.9255910471434,-556.1113689012151
7677.779059277716,2514.5711013419095,15775.256799176741,167.2580937897023,-548.2882588081515,-345.80381785653935,-210.17344058593756,-548.4223692668896
7785.425054158273,2660.19270778851,15677.043239894107,289.9915152783105,-555.6866857818774,-323.16150207290065,-206.1501268237905,-546.8800989913999
7875.815503347844,2555.005404651487,15458.48789563703,303.8495960145948,-561.5204907369906,-287.97985839723697,-212.78859453133313,-543.0579509173602
7366.19576014255,2800.852227261795,15591.369008503498,590.264832393219,-562.302801746297,-328.21299601870754,-266.0751501366585,-545.3601804590332
7666.84905689055,2784.6025100113457,15364.096484428434,442.4751068636839,-560.1123309202391,-340.90878611259376,-228.36775948809145,-552.4009795427907
7485.6881788783185,2543.2483877687687,15493.42367013834,339.72414372707266,-559.2182611953175,-249.08782536314877,-197.07531911583658,-553.0044766071127
7260.472015170575,2506.0103837257852,15801.475393860064,330.04583895479675,-556.3795898186916,-295.8700237196698,-290.5726605995095,-551.462206331623
7015.049875679605,2575.814877499037,16063.996616840159,376.24689199011874,-554.390284680741,-271.3948649999419,-284.13535858007424,-552.1327586253142
7369.593225097252,2731.5618235803736,15851.476243226303,244.95275288538653,-559.3747233971789,-306.263584271883,-280.7602453684953,-553.0268283502357
7767.074273054259,2809.949386712872,15945.934709664267,256.4191971075056,-559.8664617458857,-342.8980912505442,-272.26658298174044,-555.440816607524
7499.74742530271,2588.398908877308,15844.033112766332,428.0582325493236,-557.2960112867362,-335.18673987309575,-231.7652244427934,-550.8363575241779
7627.018250645295,2648.7039118232674,15151.240834667733,305.9059563819144,-554.1667672495107,-312.9020519794257,-246.85265105084486,-549.182328533073
7469.036130251654,2423.3536376567863,15304.529089005535,303.5813750971183,-555.3961131212778,-366.4121250159815,-217.84008847714,-549.0482180743347
7351.465961424467,2302.1177829574217,15464.902845913342,427.0971075950329,-555.6866857818774,-357.5608347392579,-165.8946374591969,-555.0831887175553
7377.930425282146,2904.8995914995426,15093.774503098399,502.2213162315676,-559.9335169752547,-346.2732044621232,-175.9976253508106,-554.5243951394793
7461.190668415467,2958.2532023342374,15777.24610431469,331.0516673953335,-559.7770547733935,-365.2945378598295,-156.46220186127437,-547.5953547713372
7459.402528965625,2849.243751123175,15717.2987292587,258.5649644473174,-557.5195287179665,-345.8261695996624,-230.46882334165713,-544.2425933028813
7625.118352479836,2524.8752549216306,15609.518623919404,358.49960795042557,-556.2007758737072,-326.64837400009475,-235.56502077371007,-544.4884624772347
7512.331456680981,2678.3870266906633,15427.910711044713,416.9494162171731,-557.9889153235504,-255.50277563946102,-234.06745398446645,-550.0987500011175
7206.649017730297,2783.3508123964557,15306.898373776578,356.3761923537369,-553.6303254145578,-265.6728187604438,-236.9508288473385,-554.8149678000789
7057.764056787732,2524.8752549216306,15857.578269098893,300.78740720673846,-553.4738632126965,-377.1186099719173,-282.2131086714928,-555.0161334881861
7602.699554127428,2705.7455602732634,15173.21259815768,587.7390854203155,-554.1891189926338,-399.5597600674486,-256.2850866487674,-549.9869912855024
7635.623671747665,2735.160454223183,15581.869517676205,348.64248923316535,-551.8868894509607,-313.3714385850095,-264.0187897693389,-551.5516133041151
7290.110426551725,2634.8905345732296,15575.253401711787,220.43289067941254,-554.2561742220029,-286.0129050024095,-252.1723659141282,-552.1551103684371
7509.38102658874,2629.9731510861607,15525.923104639238,325.4637316145737,-552.3786277996676,-366.0992006122589,-174.88003819465865,-546.7906920189077
7690.921884234064,2817.168999741614,15633.613803006041,374.9057874027364,-556.9383833967676,-354.5209976745246,-214.17440260496156,-551.9539446803299
7685.356300196427,2830.2000659823457,15932.344849845458,311.6727061076585,-557.4748252317205,-291.48908206755414,-178.52337232371403,-552.646848717144
7553.548070999865,2615.3327593405697,15978.568254623904,510.8714408201838,-557.1171973417519,-308.7222760154173,-134.08810699511213,-554.6808573413406
7523.9096596187155,2405.0699117821405,15627.847053280297,241.30941875633116,-557.5418804610896,-317.662973264633,-173.4271748916611,-555.0608369744323
7277.7946160909305,2525.5681589584447,15236.98212128771,278.79329197366786,-559.4194268834249,-312.5891275757031,-180.91500883787924,-556.3795898186916
7039.256813481857,2653.397777879106,15531.421633447506,491.15720338566325,-558.2124327547808,-330.33641161539623,-250.2501160055468,-550.0763982579946
7282.957868752353,2908.878201775444,15624.516643554964,484.83166008184315,-561.4087320213754,-281.6096116071708,-210.39695801716795,-551.9539446803299
7513.046712460919,2901.0997951686263,15481.28667362253,443.36917658860546,-559.2406129384406,-262.1188916038806,-201.16568810735274,-552.9150696346205
7731.847925892349,2998.2628225244775,16073.071424548114,487.06683439414707,-559.2182611953175,-331.49870225779426,-189.22985727964982,-548.4223692668896
7466.80095593935,2754.941746887073,15115.165121267148,372.4694474023251,-554.4126364238641,-369.94370042942165,-145.8898273640768,-546.6118780739234
7071.890358441494,2713.4345599075887,15427.240158751021,210.50871673278314,-553.2950492677122,-419.69868062130695,-150.29312075931554,-547.6400582575833
6834.626605190432,2637.3045228305177,14750.742301389117,309.23636610724725,-551.9986481665759,-339.8359024426879,-206.06071985129833,-542.4991573392842
7146.545180472444,2635.1140520044596,14718.041701200109,353.8280936377104,-552.4680347721597,-313.7514182181012,-244.50571802292575,-546.4777676151853
7330.254157200703,2470.0911325270613,14917.35219462825,283.5318615157522,-557.4524734885974,-317.64062152151,-210.5981237052753,-546.0754362389705
7074.460808900643,2564.2143228181794,14927.34342380425,297.0770178483139,-559.3076681678097,-374.2575868521683,-113.1445236888244,-553.764435873296
6957.5388406240245,2474.9861642710066,14505.744845017483,234.53684059005028,-556.647810736168,-301.3238490416914,-194.66133085854835,-551.0151714691622
7010.803044486228,2474.8297020691452,14841.512730211778,386.66280428545497,-561.7887116544671,-342.74162904868297,-247.34438939955172,-549.2717355055652
7031.009020269455,2604.0674808065583,15649.215319705923,230.35706462604193,-564.046237709894,-393.52478942422806,-229.64180884610468,-549.9422877992563
7380.1879513375725,2844.4157746085984,15642.241575851534,230.42411985541105,-561.9451738563283,-363.34993620812514,-173.5389336072763,-553.1609388089739
7122.02531826647,2741.061314407665,15323.304553228887,323.5861851922384,-553.786787616419,-303.51431986774924,-219.36000700950666,-548.5341279825049
7086.441343214592,2892.427318836887,15039.102139419445,311.0021538139673,-552.4680347721597,-366.1662558416281,-238.80602352655075,-550.2999156892249
7109.329528172584,2710.5064815584706,14886.082105999118,188.60400847220473,-553.0491800933587,-363.2158257493869,-232.10050058963898,-548.7129419274892
7225.5138889261425,2636.4551565918423,15122.809417415227,358.49960795042557,-559.2629646815636,-300.40742757364677,-247.00911325270613,-549.0482180743347
7310.271698848706,2287.8797225880458,15299.56700203222,206.6195134293743,-562.861595324373,-339.92530941518004,-243.11990994929732,-550.7469505516857
7347.956737754151,2348.0729668183903,15373.819492686956,341.78050409439226,-556.5137002774298,-347.1002189576756,-180.95971232412532,-549.3164389918112
7212.281656997303,2479.3224024368765,16020.500124722725,452.6227982415437,-547.8635756888136,-317.4841593196487,-191.59914205069197,-550.8140057810548
6984.33858062855,2426.2593642627817,15434.482123522886,197.50000223517432,-558.0112670666734,-311.404485190182,-179.50684902112778,-551.3951511022539
6972.961543378922,2475.2990886747293,14896.945053156916,213.07916719193264,-557.3630665161053,-356.3761923537369,-175.84116314894933,-555.3514096350318
7015.519262285189,2639.1373657666068,14920.883770041692,315.8748338147899,-556.1113689012151,-335.41025730432614,-187.88875269226747,-551.5739650472382
7098.265415326679,2634.8458310869833,14750.988170563469,369.0496307045001,-552.7139039465131,-366.65799419033493,-147.38739415332043,-544.5778694497269
7198.177707086665,2551.652643183031,14977.053700509889,535.0113233930662,-558.346543213519,-327.9671268443541,-230.69234077288752,-544.5331659634809
6989.188908886249,2250.0158697376173,15138.7909137482,432.77445034828486,-558.4359501860112,-315.5842611541904,-165.1570299361366,-551.0151714691622
7173.143754788861,2271.7194123100885,15528.024168492804,338.5842048277977,-556.4913485343068,-358.67842189540994,-121.5264273599641,-554.2338224788798
7087.82715128822,2549.0151374945126,15672.88581567322,339.25475712148886,-554.8596712863249,-407.3381666742663,-198.88581030880275,-549.6517151386568
6653.510430664445,2611.0635764040694,15538.37302555877,458.32249273791865,-553.8314911026652,-375.37517400832024,-169.2697506707758,-543.460282293575
7108.480161933909,2525.277586297845,15565.105710333926,349.5589107012099,-552.9597731208665,-327.25187106441683,-124.32039525034399,-543.6167444954363
7527.955325123985,2565.3989652037003,15611.083245938018,257.15680463056594,-552.8927178914975,-331.4316470284252,-133.88694130700478,-545.1143112846798
7528.894098335153,2574.473772911654,15695.103448337522,324.99434500898985,-562.4592639481582,-332.2363097808546,-159.07735580666994,-549.8528808267641
7510.051578882431,2783.171998451471,15802.637684502462,238.24722994847477,-562.8392435812499,-322.11097014611784,-227.00430315758607,-555.7313892681234
7014.826358248374,2594.9703213554812,15360.520205528748,224.54561141405173,-558.2794879841499,-328.63767913804526,-162.4301172751258,-549.4729011936724
7197.887134426065,2643.6524178774607,15595.772301898736,154.42819323707778,-558.3912466997651,-419.2292940157231,-121.41466864434891,-550.0316947717484
7295.854824534346,2700.93993550181,15646.354296586174,187.88875269226747,-562.302801746297,-420.1680672268908,-174.9694451671508,-550.4116744048401
7386.289977210163,2872.266046539906,15537.791880237573,290.43855014077127,-562.7498366087577,-353.3140035458805,-95.55370185099255,-553.4515114695735
7229.090167825829,2525.5011037290756,15651.517549247596,110.81994240402832,-554.2785259651259,-396.8775508926839,-142.5147141524979,-556.044313671846
7075.958375689886,2584.621464289514,15136.086352830313,70.3185838650813,-551.2163371572695,-342.96514647991336,-136.94913011486113,-555.1055404606783
6973.274467782645,2566.6059593323444,15445.54623636879,160.75373654089788,-549.2940872486881,-334.4938358362815,-86.21067322556218,-548.7129419274892
6954.543707045537,2266.220883501821,15328.512509376556,396.02818465400844,-553.183290552097,-378.2809006143153,-177.56224736942335,-548.8917558724735
6944.217201722693,2563.2755496070117,15535.355540237162,279.3967890379899,-561.162862847022,-353.78339015146435,-125.2368167183886,-555.2172991762935
7020.4813492585035,2535.7158503363044,15343.1081976359,308.67757252917124,-557.7206944060739,-369.004927218254,-136.39033653678516,-551.2386889003926
6931.722577316914,2571.6574532781515,14945.046004357697,382.2818626333393,-557.0277903692597,-398.1292485075741,-176.3999567270253,-547.1259681657534
7341.988822340299,2877.9210375500347,15190.669309536774,286.862271241085,-550.2105087167328,-348.19545437070457,-189.63218865586452,-548.601183211874
7546.149644026139,2712.6298971551596,15282.713787717448,417.3964510796339,-554.1667672495107,-348.24015785695065,-188.0675666372518,-543.9520206422818
7071.219806147802,2559.6992707073255,15012.548268589275,395.06705969971773,-554.7032090844637,-350.5647391417467,-162.0277858989111,-547.1036164226304
6930.917914564485,2598.904228145136,15036.93402033651,392.0048708918614,-550.0540465148715,-388.8309233683898,-171.2590558087263,-556.1560723874612
6940.573867593638,2570.316348690769,14838.450541403921,400.8114576823388,-552.6692004602671,-342.4734081312065,-103.95795726525529,-551.0151714691622
7165.253589466428,2592.645740070685,15266.486422210122,255.05574077700024,-553.2503457814661,-324.14497877031437,-115.11147708365185,-546.2095466977088
7290.892737561032,2543.002518594415,15208.438945319589,280.49202445101884,-554.7032090844637,-334.9408706987423,-184.87126737065716,-543.5720410091901
7407.546484920173,2581.0451853898276,15160.449752834424,289.03039032401983,-552.4009795427907,-355.1468464819697,-229.79827104796595,-544.1531863303892
6951.749739155157,2629.5261162237002,15013.308227855458,305.12364537260805,-554.0326567907724,-399.0009664893726,-166.09580314730425,-551.5516133041151
7104.3003859699,2407.752120956905,14855.907252783014,464.3798151242623,-554.6361538550946,-338.89712923152024,-222.51160278985517,-556.8266246811523
7144.511171848248,2299.0555941495654,15366.465769199476,451.3711006266535,-553.742084130173,-306.80002610683596,-217.43775710092527,-548.668238441243
7087.983613490082,2323.486049383047,15638.53118649311,280.29085876291145,-557.9889153235504,-325.3519728989585,-226.64667526761744,-551.8868894509607
7320.2405762815815,2683.192651462117,15656.725505395263,216.18605948603508,-563.8674237649096,-396.43051603022315,-230.64763728664144,-551.8421859647146
6787.240909769589,2703.286868529729,15550.06298721212,261.9624294020193,-561.9004703700822,-420.14571548376773,-213.6826642562547,-552.8480144052514
6898.910218412293,2395.50336572548,15037.761034832063,358.0525730879648,-551.1492819279005,-389.23325474460455,-154.11526883335523,-555.2396509194166
7107.161409089649,2365.686140399345,15007.787347304067,321.90980445801046,-555.3737613781548,-378.01267969683886,-171.9966633317866,-553.2503457814661
7285.751836642733,2726.0185912858597,14998.489022164884,182.7255000308454,-562.7498366087577,-368.9378719888849,-203.66908333713315,-550.9928197260391
7101.953452941981,2505.630404092694,15722.797258066967,294.4395121597953,-562.928650553742,-369.36255510822264,-188.26873232535914,-552.8256626621284
7075.533692570549,2233.252062395338,15131.817169893811,-33.75113211578918,-549.4505494505495,-358.7678288679021,-188.38049104097433,-548.2212035787823
7301.778036461951,2455.763665185193,14768.35547497007,-43.49649211743427,-551.9539446803299,-365.60746226355207,-184.55834296693462,-549.9869912855024
6950.229820622791,2698.3694850426605,15000.947713908417,-117.61487231343224,-553.4962149558195,-327.38598152315507,-177.62930259879246,-557.3183630298593
6842.941453632203,2523.8470747379706,15318.186004053712,-67.50226423157837,-556.3125345893225,-373.7434967603383,-206.3289407687748,-556.4913485343068
7030.696095865733,2401.0913015062392,15365.079961125848,4.2021277071313685,-556.4466450480606,-382.52773180769276,-218.84591691767676,-554.8596712863249
7043.905976051448,2230.1675218443584,15046.679380338155,94.27965249297932,-564.1356446823861,-370.34603180563636,-170.1861721388204,-554.5467468826024
6931.007321536977,2283.208208275331,15172.251473203389,-35.02518147380241,-556.7595694517832,-376.7386303388256,-141.8218101156837,-553.1609388089739
6836.548855099014,2511.8441886808987,14974.595008766355,-70.34093560820433,-554.7926160569558,-416.7706022721888,-144.7498884648018,-554.7702643138327
6810.240853443197,2350.8669347087703,15408.799970674514,72.93373781047688,-552.9374213777436,-457.383719526751,-172.17547727677092,-554.6361538550946
6931.186135481961,2173.438797798085,15171.782086597805,212.72153930196401,-553.5409184420656,-380.7842958440957,-153.5788269984023,-551.8421859647146
6973.609743929491,2331.309159476111,15469.14967710672,-65.31179340552052,-561.8334151407131,-356.8008754730746,-94.48081818108668,-550.5681366067014
7183.827888001673,2459.2281853692643,15386.515282780843,99.71112607187784,-559.7099995440244,-370.8601218974663,-195.6671592990851,-550.6575435791935
7159.643301942545,2342.2838653495232,15277.103500193565,-44.54702404421711,-556.044313671846,-340.95348959883984,-213.52620205439342,-551.5516133041151
7016.346276780741,2455.9424791301776,15177.504132837303,27.69380972944556,-560.7158279845612,-309.88456665781536,-242.04702627939145,-544.7343316515881
6943.144318052788,2604.67097787088,15331.440587725674,141.24066479448467,-557.0277903692597,-329.84467326668937,-203.42321416277971,-553.1385870658509
7320.821721602781,2730.5336433967136,14936.619397200311,62.96486037760141,-552.8033109190053,-328.83884482615264,-213.54855379751646,-555.7313892681234
7221.043540301534,2558.916959698019,15114.986307322162,209.0782051729086,-553.0715318364818,-355.7056400600457,-185.56417140747138,-549.9869912855024
6705.120605535543,2817.6160346040747,15458.018509031446,159.92672204534543,-555.0161334881861,-387.10983914791575,-134.11045873823517,-547.3047821107377
6792.314755458519,2746.8280641334095,15647.717752916678,23.111702389222526,-558.7265228466107,-371.97770905361824,-187.3299591141915,-553.9656015614033
6927.609856582275,2333.4325750727994,15692.622404850865,-82.03089726155385,-561.9675255994514,-396.27405382836184,-166.1181548904273,-550.7245988085626
7020.436645772257,2318.21103800601,15253.343597253775,-107.89186405491019,-558.6147641309955,-411.38383217953634,-179.39509030551258,-547.2153751382456
7121.175952027795,2407.819176186274,15204.236817612458,81.40504845410874,-559.7994065165166,-386.104010707379,-175.3717765433655,-546.5224711014313
7401.198589873229,2359.1370796642946,15349.076113049752,69.53627285577493,-563.3756854162028,-371.57537767740354,-226.71373049698656,-545.5613461471406
7323.079247658208,2211.9955546853275,15140.42259099618,-40.99309688765388,-562.928650553742,-396.05053639713145,-259.83901380533064,-547.1483199088764
7247.8209285629355,2349.257609203911,15357.860348097105,-55.588785146998475,-561.0734558745298,-412.300253647581,-206.77597563123558,-549.6517151386568
7134.095259552912,2262.823418547119,15651.092866128258,52.03485799043524,-558.7041711034876,-369.92134868629864,-200.2269148961851,-555.3514096350318
7204.257381216132,2429.0980356394075,15168.094048982504,101.47691377859795,-547.3718373401068,-352.59874776594324,-197.05296737271354,-550.5010813773323
6919.563229057981,2610.0353962204094,15469.395546281074,-9.812415231014207,-547.2153751382456,-379.08556336674474,-159.83731507285327,-553.5185666989425
6902.352386853241,2653.509536594721,15053.653124192544,61.668459276465136,-550.5010813773323,-414.1330965836702,-133.1716855270675,-550.344619175471
6926.022882820539,2568.8634853877716,15178.040574672255,91.46333285947638,-560.2687931221004,-374.19053162279914,-187.77699397665228,-549.4058459643034
6963.283238606647,2603.6204459440974,14461.44369014762,229.1947739836439,-559.7099995440244,-414.4460209873927,-185.47476443497922,-547.2153751382456
6948.75460557667,2300.441402223194,14761.96287643688,104.51675084333127,-551.6857237628534,-385.7687345605334,-177.40578516756207,-550.7693022948088
6833.710183722388,2332.8514297516003,15376.725219292952,126.600273048894,-548.4223692668896,-354.9233290507393,-202.26092352038168,-550.8363575241779
6850.362232349052,2638.13153732607,15268.16280294435,91.61979506133765,-554.3008777082489,-345.9379283152776,-201.2550950798449,-551.1269301847774
6841.577997301698,2599.463021723212,15154.258319989343,47.69861982456564,-555.7090375250004,-321.4627695955497,-191.24151416072334,-554.4349881669872
6958.90229695453,2275.943891760343,15254.86351578614,50.492587714945536,-556.5360520205528,-365.9427384103977,-173.4271748916611,-551.6857237628534
7120.214827073504,2194.7847124805876,14865.607909298415,111.84812258768812,-558.2571362410268,-382.57243529393884,-173.5389336072763,-543.9520206422818
6757.423684443455,2499.5060264769804,14813.416589106117,221.79634700991792,-561.9898773425743,-378.7279354767761,-157.57978901742632,-552.1104068821911
6676.77859525553,2698.8835751344905,15372.880719475788,203.37851067653364,-552.3786277996676,-409.68509970218537,-185.1171365450106,-549.4729011936724
6976.046083929902,2633.2812090683706,15415.818418015147,185.87709581119393,-557.9665635804273,-405.81824814189963,-200.15985966681598,-551.3280958728848
6882.951073822443,2267.6513950616954,14957.20535261663,315.6289646404365,-553.1162353227279,-356.89028244556675,-178.74688975494442,-551.8421859647146
6696.179908286327,2376.2138114102963,14533.975096581882,210.35225453092187,-551.9539446803299,-357.8737591429805,-131.47295304971652,-553.227994038343
6870.031766297327,2644.904115492351,14848.039439203705,36.56745174929212,-552.3562760565445,-355.8173987756609,-201.12098462110666,-550.0987500011175
7262.729541226002,2620.9206951213296,15123.614080167656,40.07667541960927,-561.0064006451606,-355.4821226288153,-183.53016278327482,-546.0754362389705
6903.805250156239,2649.642685034435,15691.77303861219,172.48840168049347,-561.4310837644985,-372.22357822797164,-192.31439783062922,-548.5117762393818
6733.954354164264,2738.2449947741625,15612.111426121677,110.66348020216705,-554.7702643138327,-426.67242447569515,-194.99660700539394,-552.7362556896362
6675.102214521301,2467.4759785816655,15042.477252631024,-46.24575652156809,-551.9539446803299,-433.7579270456986,-203.40086241965668,-550.2552122029789
7067.509416789378,2503.3728780372667,15149.542102190382,-103.75679157714794,-561.3640285351293,-351.50351235291436,-147.34269066707435,-551.7974824784685
6760.038838388851,2578.474734930678,15049.495699971658,-8.314848441770579,-559.8888134890087,-339.8359024426879,-144.72753672167877,-552.646848717144
6848.328223724855,2533.5030277671235,14515.87018465222,-32.61119321651418,-549.8305290836411,-359.3489741891011,-164.44177415619936,-550.6351918360705
6722.778482602745,2346.6871587447617,15022.00305593032,-233.70982609449783,-556.6925142224142,-429.68990979730546,-216.78955655035713,-550.7245988085626
6789.654898026878,2160.787711190445,14717.862887255125,-91.39627763010726,-556.1560723874612,-396.60932997520746,-149.26494057565574,-553.5856219283116
6919.563229057981,2431.713189584803,14548.034343006275,95.71016405285383,-561.1405111038989,-341.57933840628493,-155.56813213635277,-551.3057441297617
7115.297443586435,2300.8660853425317,14387.794696557205,42.42360844752839,-564.1356446823861,-353.5375209771109,-93.18441707995039,-550.4563778910862
6852.955034551324,2370.4247099414292,14768.087254052594,-66.07175267170385,-554.5467468826024,-388.2721297903138,-118.01720368964695,-548.6458866981201
6994.329809804548,2434.1942330714605,15074.082617407,80.06394386672639,-552.1774621115602,-399.4032978655873,-136.300929564293,-552.1774621115602
7141.784259187237,2482.518701703471,14565.088723009152,106.19313157755921,-555.0831887175553,-411.6520530970128,-161.46899232083513,-551.3504476160077
6865.181438039627,2396.24097324854,14671.326558072959,139.83250497773318,-552.4009795427907,-376.0680780451344,-146.2921587402915,-554.2114707357567
6705.791157829234,2520.60607198513,15203.968596694982,-13.701618534423027,-551.2610406435156,-335.6784782218026,-149.3543475481479,-547.8635756888136
6835.297157484124,2334.885438375797,14899.940186735404,-118.41953506586165,-556.3125345893225,-374.54815951276777,-104.5391025864543,-546.6342298170465
6619.334615429319,2259.336546619925,15183.695565682385,68.08340955277738,-558.2124327547808,-389.92615878141874,-83.12613267458276,-549.4281977074264
7098.377174042294,2308.555084976857,15387.699925166366,84.73545817944158,-554.7926160569558,-344.0603818929423,-68.6645548739764,-551.0598749554083
6690.301399844968,2660.393873476617,14488.332837124637,41.64129743822202,-550.322267432348,-341.0205448282089,-198.01409232700422,-550.7245988085626
6650.537648829081,2521.2319207925752,14858.768275902763,172.55545690986258,-554.8373195432018,-330.22465289978106,-91.08335322638472,-552.2221655978063
6571.926568265353,2598.0325101633375,15081.346933921988,239.09659618715025,-555.1725956900475,-414.9154075929765,-95.26312919039304,-550.3893226617171
6950.721558971498,2339.378138743528,15778.386043213966,215.31434150423655,-558.2347844979038,-390.8649319925864,-85.54012093187099,-552.1327586253142
6781.384753071353,2632.3200841140797,15395.590090488799,51.14078826551368,-557.2736595436131,-403.80659126082605,-112.89865451447098,-548.2435553219053
7053.003135502526,2439.759817109097,15295.387226068211,-48.36917211825681,-555.6419822956312,-390.90963547883246,-164.77705030304494,-545.4048839452794
7002.264678613226,2303.995329379757,14762.901649648049,12.628734864517144,-554.6808573413406,-388.0262606159604,-150.94132130988368,-551.8421859647146
6850.876322440882,2295.0322803874183,14796.272802130747,-2.1904708260578407,-557.184252571121,-408.63456777540256,-109.76941047724549,-551.1045784416543
7041.939022656621,2315.7299945193527,14857.293060856644,60.6179273496823,-557.0277903692597,-392.0272226349844,-105.41082056825284,-544.063779357897
6601.117944784042,2162.262926236566,15063.353780707943,-28.36436202313674,-555.8654997268617,-375.7104501551658,-133.68577561889742,-547.0365611932613
6799.400258028522,2318.3227967216253,15091.964011905433,42.58007064938966,-551.4175028453769,-361.6735554738972,-101.83454166856657,-544.3990555047426
7093.2362731239955,2494.7004017055274,14930.047984722138,102.46039047601167,-554.0103050476495,-351.50351235291436,-66.54113927728767,-548.8247006431044
6858.542970332084,2677.8058813694647,14913.239473893613,-53.24185211907936,-551.4398545884999,-349.000117123134,-169.40386112951404,-550.9928197260391
6703.712445718791,2776.555882487052,14886.283271687225,11.533499451488224,-549.9199360561332,-369.2731481357305,-144.36990883171015,-549.8975843130103
6773.829863895766,2364.7250154450544,14513.635010339916,4.895031743945584,-553.6750289008038,-351.1905879491918,-153.6905857140175,-556.5584037636759
7101.238197162043,2072.4983258544403,14786.281572954747,-38.1544255110279,-554.0773602770186,-346.9214050126913,-219.29295178013754,-555.1949474331705
6834.291329043587,2029.493572085713,14646.896102839477,9.208918166692147,-556.8042729380293,-395.7376119934089,-167.660425165917,-550.6128400929475
6736.994191228998,2248.384192489635,15042.074921254809,-15.780330644865671,-556.4242933049377,-334.6950015243889,-117.25724442346362,-551.2163371572695
6572.977100192135,2442.9114128894457,15067.399446213212,120.29708148819695,-553.8091393595421,-355.66093657379963,-125.2368167183886,-551.0822266985313
7051.706734401389,2508.5137789555656,14916.301662701468,2.9504300922411737,-549.4058459643034,-388.0486123590834,-115.55851194611263,-551.2386889003926
6670.341293236094,2324.335415621723,14420.69646243432,114.57503524869891,-553.4738632126965,-429.91342722853585,-68.41868569962297,-553.5632701851887
6638.110079652672,2149.0306943077267,14917.553360316359,12.181700002056361,-552.4233312859136,-350.2294629949011,-112.94335800071705,-554.1444155063876
7174.104879743151,2337.053557458732,15050.188604008472,-35.27105064815584,-552.579793487775,-422.2691310804565,-201.74683342855175,-553.4515114695735
6774.813340593179,2295.8145913967246,15238.144411930109,128.99190956305918,-553.6973806439269,-385.61227235867216,-213.83912645811597,-551.7751307353456
6831.854989043176,2567.298863369159,15288.882868819408,82.90261524335237,-557.0501421123828,-328.3024029911997,-179.7527181954812,-550.1658052304867
6816.476989774525,2617.009140074798,15057.117644376614,75.12420863653473,-556.5137002774298,-339.36651583710403,-174.3882998459518,-547.1706716519994
6797.3662494043265,2639.249124482222,15214.608026421549,15.757978901742632,-554.4126364238641,-380.09139180728147,-134.08810699511213,-549.3387907349343
6608.672833959629,2392.93291526633,15264.519468815295,47.69861982456564,-554.6361538550946,-381.4101446515408,-107.35542221995725,-554.5243951394793
6503.440827336361,2357.4606989300664,15053.18373758696,101.49926552172099,-554.2785259651259,-401.0349751135692,-128.27665378312193,-550.0540465148715
6844.573130880185,2518.5050081315644,14983.178078125602,-10.594726240320577,-547.7071134869524,-382.8630079545383,-153.28825433780278,-552.2892208271754
6453.484681456368,2643.6971213637066,15041.985514282318,-119.58182570825969,-555.3067061487857,-384.65114740438145,-76.3088510220558,-550.4563778910862
6599.463915792937,2275.6086156134975,14564.686391632938,-173.33776791916895,-555.9772584424769,-365.4957035479369,-101.23104460424452,-547.0589129363842
6763.972745178506,2218.7234293653623,14765.427396620953,48.14565468702642,-553.742084130173,-341.624041892531,-97.45360001645089,-546.1424914683397
6957.829413284624,2436.0270760075496,14905.43871554367,288.0692653697291,-553.4738632126965,-323.76499913722273,-173.360119662292,-549.15997678995
6789.74430499937,2670.183936964508,14704.675358812532,234.2686196725738,-555.5302235800161,-363.864026299955,-115.08912534052881,-557.2736595436131
6799.89199637723,2628.296770351933,15338.481386809432,137.0385370873533,-552.1327586253142,-419.49751493319957,-60.97555523965092,-553.5856219283116
6823.741306289512,2240.6728411121867,15121.35655411223,55.18645377078377,-556.7819211949063,-413.39548906060986,-171.75079415743318,-551.9986481665759
7078.081791286575,2388.306104439861,15279.204564047131,180.06564259920376,-556.4689967911837,-365.0933721717222,-202.75266186908854,-554.904374772571
7090.554063949231,2417.7209983897806,14899.493151872943,172.64486388235474,-557.3183630298593,-339.9700129014261,-153.6458822277714,-554.9937817450632
7154.033014418662,2506.0103837257852,15241.966560004148,84.37783028947295,-556.8713281673985,-344.19449235168054,-158.00447213676406,-553.4738632126965
7132.441230561806,2682.522099168426,14722.802622485317,33.12528330834408,-553.4068079833273,-353.4928174908648,-118.03955543276999,-545.3154769727872
7149.830886711531,2479.098885005646,14481.560258958356,-43.51884386055731,-555.8654997268617,-312.74558977756436,-103.19799799907196,-544.3767037616195
6915.271694378357,2483.546881887131,14526.08493125945,-22.284687893670075,-556.8489764242754,-297.8816806007434,-91.1280567126308,-547.8412239456907
6756.0602281129495,2525.5011037290756,14571.794245946065,175.1929625983812,-554.5020433963563,-353.98455583957167,-141.97827231754496,-549.718770368026
6790.101932889338,2143.4874620132127,15599.25917382593,209.0111499435395,-558.3688949566421,-351.7046780410217,-143.29702516180427,-550.322267432348
6937.198754382059,2202.116084224944,15396.484160213718,-24.206937802251446,-555.7090375250004,-369.56372079633,-105.6119862563602,-543.9743723854049
6946.854707411212,2112.575001274049,14830.314506907134,35.44986459314016,-561.5428424801136,-361.51709327203594,-104.71791653143862,-545.8519188077402
6801.724839313319,2331.37621470548,14702.618998445212,-13.209880185716164,-559.5311855990401,-377.43153437563984,-87.37296386796021,-548.3329622943975
6883.912198776734,2372.8163464555946,15080.92225080265,-124.70037488343566,-545.3601804590332,-411.8755705282432,-168.71095709269983,-548.601183211874
6874.300949233827,2087.2504763156458,15240.513696701151,-48.25741340264162,-551.6633720197303,-401.14673382918437,-187.9111044353905,-551.1492819279005
6586.075221662237,2354.197344434103,15268.587486063687,-2.3916365141651936,-560.7828832139303,-407.62873933486577,-163.99473929373855,-550.6575435791935
6967.395959341286,2350.5763620481707,15434.079792146671,60.684982579051415,-560.7158279845612,-413.6413582349633,-149.93549286934692,-548.3553140375205
7099.852389088415,2120.7557392570816,14685.452859726718,97.8559313926656,-557.8548048648122,-403.18074245338096,-75.70535395773375,-541.4486254125014
6929.889734380825,2231.687440376725,15087.806587684547,135.94330167432437,-554.926726515694,-431.0533661278108,-140.23483635394788,-542.6779712842686
6874.368004463196,2282.425897266024,15482.314853806189,-34.175815235126926,-555.6196305525083,-441.0445953038094,-122.5546075436239,-547.2600786244916
6450.020161272297,2494.8568639073883,14832.795550393792,-55.074695055168576,-557.6089356904587,-397.5481031863751,-181.78672681967777,-547.1483199088764
6860.174647580066,2454.2884501390727,14796.876299195068,158.45150699922485,-557.2289560573671,-347.3460881320291,-100.40403010869206,-550.5010813773323
6919.6749877735965,2084.367101452774,14391.303920227521,61.154369184635236,-558.8829850484719,-390.9319872219555,-97.14067561272833,-553.4738632126965
6587.7516023964645,2508.8714068455342,14413.722718579933,-89.94341432710972,-556.1337206443382,-407.159352729282,-118.37483157961557,-550.2775639461018
6796.58393839502,2575.501953095314,14698.014539361866,-36.07571340058526,-556.6925142224142,-366.5462354747197,-130.3777176366876,-544.9578490828186
6729.372246824041,2564.236674561302,14818.937469657509,-185.09478480188756,-554.882023029448,-380.8960545597109,-97.72182093392736,-547.7741687163215
6768.756018206836,2496.309727210386,14507.443577494834,-6.504357248804405,-554.1667672495107,-365.98744189664376,-79.25928111429698,-551.8645377078377
6542.04228770985,2406.120443708923,14855.683735351784,98.16885579638814,-557.0501421123828,-425.21956117269764,-104.47204735708519,-553.2950492677122
6318.614263451949,2462.379781149613,15209.712994677602,119.53712222201361,-558.3912466997651,-415.87653254726723,-101.61102423733618,-551.8421859647146
6417.990113376982,2503.8646163859735,14983.02161592374,91.32922240073815,-556.2454793599534,-356.9126341886898,-100.3146231361999,-549.6070116524107
6625.615455246892,2352.3868532411366,14900.521332056602,-41.03780037389996,-554.0773602770186,-376.98449951317906,-48.39152386137985,-551.8645377078377
6785.497473805993,2575.2784356640836,14972.695110600896,165.380547367367,-557.6312874335817,-405.59473071066924,-125.37092717712683,-555.3737613781548
6614.283121483512,2709.0536182554733,14757.157251665429,90.54691139143178,-554.1220637632646,-359.9077677671771,-161.960730669542,-554.4126364238641
6761.759922609325,2555.3183290552097,14360.860846093943,-25.27982147215733,-555.1502439469244,-379.1749703392369,-117.1901891940945,-553.0268283502357
6373.8007172227335,2516.3368890486295,14600.248014941693,141.01714736325425,-559.0617989934563,-407.67344282111185,-114.41857304683764,-546.2318984408319
6648.682454149869,2061.478916494782,14897.906178111207,45.79872165910731,-556.1337206443382,-405.95235860063787,7.733703120571561,-552.3786277996676
6853.446772900032,2217.4717317504724,14695.354681930225,-72.12907505804748,-555.9102032131077,-428.30410172367704,-110.5740732296749,-549.5846599092877
6667.7261392906985,2374.269209758592,14738.49354615769,46.04459083346074,-557.0277903692597,-386.1487141936251,-112.45161965201018,-546.2766019270779
6269.395725095018,2351.1351556262466,14576.935146864364,4.626810826469113,-558.2571362410268,-351.50351235291436,-79.97453689423423,-548.4894244962587
6317.407269323306,2321.8096686488193,14371.857903710477,-82.94731872959845,-557.6536391767048,-366.90386336468833,-101.02987891613715,-545.3601804590332
6589.942073222523,2236.4930651481786,14911.853665819983,3.129244037225487,-554.2338224788798,-373.0952962097702,-37.37211450172153,-547.0142094501382
7037.0663426557985,2377.3537503095713,14870.50294104236,-8.359551928016659,-554.5243951394793,-346.42966666398445,-111.19992203711999,-548.8694041293504
6851.837447395173,2149.231859995834,14735.923095698541,-143.3193769049273,-557.2736595436131,-399.1574286912339,-128.63428167309056,-543.1250061467293
6520.159931192395,2403.751158937881,15184.232007517337,-199.13167948315618,-560.2017378927312,-402.2419692422133,-150.80721085114544,-549.0258663312117
6338.9096462076695,2487.681954364893,14675.90866541318,-60.88614826715877,-559.6652960577783,-426.1359826407422,-143.3193769049273,-551.2610406435156
6610.349214693857,2403.7958624241273,14434.711005372466,-86.14361799619306,-556.5360520205528,-396.1399433696236,-122.7781249748543,-552.5574417446519
6299.6599852836125,2750.560805234957,14701.143783399091,13.768673763792144,-561.7216564250979,-402.3537279578285,-83.19318790395188,-548.2435553219053
6211.482358663222,2502.1882356517453,15204.25916935558,26.88914697701615,-558.0559705529195,-380.35961272475794,-52.616003311634266,-556.5584037636759
6461.799529898139,2390.787147926518,15189.641129353113,96.40306808966804,-555.1055404606783,-374.14582813655306,-100.3146231361999,-558.1677292685347
6733.976705907387,2448.879328303297,14648.796001004934,98.97351854881755,-554.904374772571,-353.7610384083413,-93.49734148367295,-551.0151714691622
6532.587500368804,2286.6056732300326,15227.773203121018,145.7780686484616,-557.5418804610896,-340.461751250133,-154.80817287016944,-548.8247006431044
6258.3539639922365,2133.9656194427976,15354.06055176619,-50.87256734803721,-556.9160316536445,-441.5810371387623,-104.2485299258548,-551.0151714691622
6493.918984765946,2566.71771804796,15100.54708126468,30.06309450048772,-556.4689967911837,-374.74932520087515,-30.219556702348992,-546.321305413324
6211.080027287007,2644.9711707217202,15071.13218731476,-54.06886661463181,-554.6138021119715,-397.7716206176055,-114.75384919368322,-548.6458866981201
6507.710010272862,2443.7831308712443,14880.337708016497,-57.35457285371857,-557.8324531216891,-406.39939346309865,-117.41370662532489,-553.2503457814661
6472.304849165967,2254.553273591594,15191.45162054608,-2.7269126610107817,-560.626421012069,-357.4043725373967,-95.19607396102393,-552.1774621115602
6721.616191960346,2386.2944475587874,15140.534349711797,83.21553964707492,-561.3416767920063,-401.77258263662947,-155.38931819136846,-544.6672764222191
6801.724839313319,2396.710359854124,15218.921912844295,107.57893965118764,-560.1570344064852,-423.56553218159274,-151.6342253466979,-545.3601804590332
6728.366418383504,2239.66701267165,15019.544364186786,59.477988450407295,-551.5516133041151,-389.85910355204965,-81.60621414221609,-544.9802008259417
6781.205939126369,2142.481633572676,14709.972721932692,40.70252422705437,-556.9383833967676,-392.6977749286756,-173.0248435154464,-547.7071134869524
6584.04121303804,2015.0319942851065,14770.680056254867,225.86436425831107,-559.8441100027626,-367.9543952914712,-167.660425165917,-545.4942909177715
6468.750922009403,2341.1439264502483,15248.783841656676,90.77042882266217,-553.5632701851887,-428.72878484301475,-144.63812974918662,-546.7459885326617
6461.263088063185,2696.2684211890946,15382.648431220558,-46.84925358589015,-550.92576449667,-454.61210337949416,-125.7509068102185,-548.2435553219053
6590.523218543722,2613.835192551326,15007.094443267253,-77.11351377448521,-554.345581194495,-413.5295995193481,-90.54691139143178,-554.1891189926338
6487.012296140927,2464.1902723425787,14891.893559211108,-114.48562827620675,-552.8256626621284,-433.42265089885296,-150.13665855745427,-555.0384852313092
6273.217873169057,2411.149585911607,15441.321756918536,7.443130459972052,-551.3951511022539,-424.61606410837555,-150.80721085114544,-554.0550085338955
6658.2266484634065,2628.7214534712707,15173.346708616418,115.98319506545037,-553.3397527539582,-396.363460800854,-94.23494900673325,-550.322267432348
6674.297551768872,2516.3815925348754,14932.372566006934,145.64395818972338,-553.2950492677122,-415.5189046572986,-124.05217433286752,-550.0763982579946
6425.8579269562915,2292.6853473594992,14550.940069612268,185.16184003125667,-549.5846599092877,-405.59473071066924,-119.96180534135135,-552.2892208271754
6373.04075795655,2110.5186409067296,14531.44934960898,208.22883893423312,-543.9073171560358,-404.7006609857477,-142.96174901495868,-556.2678311030763
6553.732249363199,2355.9407803977,14704.116565234457,84.51194074821119,-555.0831887175553,-374.70462171462907,-138.55845561971995,-552.088055139068
6494.142502197176,2400.197231781318,14960.3793001401,-105.41082056825284,-550.881061010424,-342.6969255624369,-4.336238165869603,-548.5341279825049
6756.373152516672,2254.1509422153795,14655.613282657461,-37.327411015475455,-557.4748252317205,-330.5599290466266,-31.806530464084773,-552.646848717144
6507.017106236047,2175.1822337616823,14289.983468650786,110.59642497279793,-558.9947437640872,-357.5608347392579,-149.37669929127094,-547.0589129363842
6376.237057223145,2484.418599868929,14859.438828196455,128.2095985537528,-558.3241914703959,-369.69783125506825,-128.79074387495183,-548.5117762393818
6727.092369025491,2510.346621891655,15372.45603635645,105.500227540745,-553.8761945889112,-375.241063549582,-68.32927872713081,-556.3572380755685
6658.785442041482,2390.8318514127645,15275.248305514353,135.02688020627977,-553.6079736714347,-384.0476503400594,-131.6964704809469,-553.3174010108352
6046.124163038979,2257.7272211150657,15308.127719648344,245.31038077535516,-550.6575435791935,-373.18470318226235,-184.64774993942677,-549.9646395423794
6297.871845833769,2264.1421713913783,15250.929608996486,189.87805783021795,-551.5739650472382,-405.5276754813001,-155.94811176944444,-543.3485235779598
6399.058186951767,2256.5202269864217,15418.366516731174,43.943526979895054,-557.3183630298593,-412.63552979442653,-161.8489719539268,-548.4894244962587
6545.775028811397,2413.943553801987,15347.489139288016,74.23013891161315,-557.2289560573671,-413.7084134643324,-145.04046112540132,-555.7313892681234
6708.965105352706,2224.691344779214,14587.954556224022,43.78706477803378,-554.2338224788798,-370.4577905212516,-128.2095985537528,-554.0773602770186
6378.807507682294,2358.4218238843573,15098.021334291776,-147.56620809830474,-557.7206944060739,-384.42762997315106,-162.4748207613719,-553.183290552097
6452.724722190184,2036.1543915363784,15345.90216552628,-127.33788057195429,-556.4689967911837,-397.92808281946674,-168.50979140459248,-550.0540465148715
6340.541323455651,2090.759699985963,15071.959201810312,-23.894013398528898,-555.5302235800161,-360.06422996903837,-171.0355383774959,-547.2153751382456
6248.6309557337145,2128.355331918915,14803.760636076964,60.97555523965092,-554.1444155063876,-372.5365026316942,-118.53129378147685,-549.0482180743347
6257.035211147977,2032.2428364898467,14823.51957699773,41.238966062007314,-553.6526771576808,-417.6423202539873,-128.00843286564546,-553.6973806439269
6194.539737375959,2195.119988627433,14999.226629687942,16.33912422294165,-554.2338224788798,-388.4956472215442,-155.03169030139983,-553.5409184420656
6146.751710578901,2191.9460411039618,14599.152779528664,21.412969911871546,-558.2124327547808,-364.7133925386305,-118.95597690081459,-551.4175028453769
6240.36081077819,2341.4121473677246,14734.96197074425,0.2682209174764703,-557.0501421123828,-349.26833804061044,-99.86758827373912,-551.6633720197303
5898.4014927388125,2224.758400008583,14679.104964679775,194.66133085854835,-559.0617989934563,-366.143904098505,-126.15323818643321,-547.8188722025676
6144.09185314726,2296.507495433539,14298.54418626691,174.03067195598317,-562.4592639481582,-403.0913354808888,-177.29402645194688,-547.3047821107377
6665.490964978395,2412.2448213246357,14213.004065335039,142.4029554368827,-560.2687931221004,-412.92610245502607,-195.91302847343854,-548.9141076155965
6325.319786388862,2678.1635092594333,14692.15838266363,133.97634827949693,-555.7090375250004,-394.4859143785187,-122.37579359863959,-553.1385870658509
6566.070411567117,2556.167695293885,14717.214686704558,-12.382865690163714,-557.184252571121,-380.69488887160355,-98.90646331944843,-549.0035145880887
6560.415420556988,2261.9069970790742,14564.149949797986,3.59863064280931,-556.625458993045,-377.65505180687023,-99.66642258563176,-551.8868894509607
6278.068201426757,2525.836379875921,14896.90034967067,-48.63739303573329,-554.4796916532332,-379.66670868794375,-108.94239598169304,-555.0831887175553
6124.5340779146,2486.2514428050185,15500.933855827681,-12.852252295747537,-557.0277903692597,-452.4439842965594,-56.70637230315044,-556.7148659655371
6246.596947109518,2432.0261139885256,15157.342860540322,50.693753403052895,-561.5204907369906,-393.4577341948589,-78.36521138937542,-550.4563778910862
6132.088967090187,2266.265586988067,14442.422356749914,227.29487581818557,-560.7828832139303,-411.6967565832589,-113.94918644125381,-549.718770368026
6459.877279989557,2328.0458049801473,14917.821581233835,330.1575976704119,-559.0394472503332,-429.1981714485986,-181.7420233334317,-547.5282995419681
6447.337952097532,2297.110992497861,15036.442281987804,-63.411895240062194,-554.0326567907724,-436.1272118167408,-172.35429122175523,-549.1152733037038
6321.7435074891755,2485.469131795712,15239.641978719352,-119.47006699264449,-554.2785259651259,-437.982406495953,-112.58573011074843,-547.3718373401068
6650.2247244253585,2297.4015651584605,14842.809131312913,-36.94743138238378,-557.4971769748436,-417.15058190528043,4.112720734639211,-545.5613461471406
6865.42730721398,2633.7952991602006,14595.241224482133,-79.37103982991218,-557.7206944060739,-411.96497750073536,-39.38377138279506,-553.2503457814661
6565.690431934025,2336.1594877338102,14476.911096388763,-69.75979028700532,-555.48552009377,-370.77071492497413,-85.40601047313275,-553.0044766071127
6374.851249149516,2375.2750381991286,14550.493034749808,-131.54000827908564,-552.7362556896362,-367.9990987777173,-34.01935303326565,-548.4000175237666
6273.866073719625,2307.303387361967,14894.039326550921,213.95088517373117,-553.5632701851887,-332.8621585882997,15.154481837420574,-548.623534954997
6230.481340317807,2040.8482575922167,15103.542214843166,79.3263363436661,-559.5982408284092,-350.25181473802417,-47.92213725579603,-555.1278922038014
6458.245602741575,2137.1172152231466,15063.823167313527,-65.11062771741317,-560.4029035808386,-402.77841107716625,-169.62737856074443,-548.8470523862273
6468.102721458835,2310.969073234145,14295.660811404037,-140.21248461082484,-554.7479125707097,-412.903750711903,-94.07848680487197,-548.7799971568583
6478.228061093573,2352.677425901736,14632.300414580131,-73.60429010416806,-555.9772584424769,-410.10978282152314,-129.6848135998734,-548.6458866981201
6104.238695158881,2343.9378943406277,15056.268278137939,79.48279854552737,-562.6604296362656,-395.0447079565947,-107.0424978162347,-548.7352936706122
6470.181433569279,2142.1463574258305,14944.218989862144,44.837596704816626,-560.7381797276842,-444.79968814847996,-133.41755470142093,-545.5836978902637
6588.422154690155,2365.127346821269,15150.92791026401,16.629696883541158,-552.9597731208665,-387.51217052413045,-122.62166277299302,-544.8460903672034
6386.049472454159,2366.9601897573584,15223.280502753287,42.13303578692888,-557.3183630298593,-447.54895255261374,-115.11147708365185,-550.2328604598558
6522.350402018452,2220.936251934543,14523.670943002162,-14.238060369375967,-557.3630665161053,-459.1942107197172,-143.3640803911734,-546.6342298170465
6724.58897379571,2288.8408475423366,14430.888857298427,128.09783983813762,-559.8888134890087,-436.9095228260471,-105.85785543071363,-553.1162353227279
6448.50024273993,2350.9339899381393,14235.847546806785,48.9279656963328,-557.5418804610896,-418.0893551164481,-7.107854313126464,-547.1930233951225
6302.498656660238,2099.7227489783018,14148.943969544409,74.0289732235058,-552.1774621115602,-410.53446594086085,-1.6987324773509787,-548.3106105512744
6414.726758881018,2116.9335911830417,14486.187069784824,65.11062771741317,-554.904374772571,-381.54425511027904,19.91540312262792,-553.2726975245891
6605.700052124265,2347.1341936072226,14686.682205598485,151.09778351174495,-553.8985463320342,-419.5198666763226,4.783273028330387,-549.2940872486881
6390.6092280512585,2509.0278690473956,14629.260577515399,-1.2516976148901948,-555.7984444974926,-407.87460850921923,-111.06581157838175,-551.5069098178691
6445.974495767026,2156.33971430896,14297.314840395142,-17.099083489124983,-554.926726515694,-411.6297013538898,-77.40408643508472,-547.8635756888136
6572.507713586552,2297.3345099290914,14552.63880208962,145.3757372722469,-555.48552009377,-439.7481942026731,-61.10966569838916,-551.4175028453769
6316.78142051586,2441.346790870833,14852.845063975159,-2.0563603673196056,-557.6089356904587,-449.15827805747256,-171.6166836986949,-552.579793487775
6233.163549492571,2343.8261356250127,15163.757810816634,70.43034258069649,-550.9704679829161,-452.2651703515751,-177.58459911254639,-549.9422877992563
6440.699484389989,2272.144095429426,14944.889542155835,73.13490349858424,-555.2843544056626,-413.82017217994763,-149.1755336031636,-551.9315929372068
6263.450161424289,2380.147718199951,14714.823050190393,24.788083123450466,-556.0666654149691,-404.6112540132555,-67.25639505722494,-544.7343316515881
6560.504827529479,2268.2325403828945,14706.105870372407,-22.038818719316644,-554.2785259651259,-410.1544863077692,-107.33307047683421,-550.344619175471
6654.158631215014,2253.4580381785654,14744.193240654065,-13.656915048176948,-555.0384852313092,-402.1302105265981,-56.818131018765634,-545.5836978902637
6107.83732580169,2030.9687871318333,15090.17587245559,-89.89871084086364,-559.6429443146553,-438.69766227589025,-93.9220246030107,-544.5108142203578
6182.447444346394,2314.5900556200777,15153.163084576314,6.727874680034797,-562.2804500031739,-422.53735199793294,-105.07554442140726,-547.0365611932613
6414.7491106241405,2551.2056083205707,15416.377211593224,178.34455837872972,-559.486482112794,-432.84150557765395,-69.53627285577493,-549.6740668817798
6563.924644227305,2574.227903737301,14914.737040682856,337.42191418539966,-554.323229451372,-374.6152147421369,-95.93368148408422,-551.2610406435156
6301.872807852794,2348.1847255340053,14761.269972400067,316.18775821851244,-554.1667672495107,-419.743384107553,-43.51884386055731,-549.8752325698872
6347.2468463925625,2049.140754290864,14786.482738642855,320.9486795037198,-557.9218600941813,-426.6277209894491,-83.52846405079747,-547.2600786244916
6673.202316355843,2337.2100196605934,14318.951327738245,317.3500488609105,-559.1065024797024,-441.402223193778,-102.5945009347499,-551.0598749554083
6521.545739266023,2259.1800844180634,14553.89049970451,343.14396042489767,-557.3183630298593,-440.79872612945593,-99.06292552130971,-549.6517151386568
6350.621959604142,2061.9035996141197,14582.299565213892,411.71910832638196,-556.7372177086602,-401.37025126041476,-76.55472019640924,-551.8645377078377
6597.608721113725,2247.1548466178683,14397.227132155127,436.6636536516937,-551.9986481665759,-382.4830283214467,-108.16008497238666,-551.5069098178691
6602.906084233885,2180.770169542442,14383.369051418844,378.81734244926827,-551.0151714691622,-368.73670630077754,-128.16489506750673,-548.4223692668896
6479.5244621947095,2176.098655229727,14689.677339176973,359.68425033594673,-561.7216564250979,-401.8843413522447,-72.21848203053963,-549.227032019319
6463.520614118613,2210.8332640429294,15158.527502925843,314.198453080562,-555.5302235800161,-432.5062294308084,-114.15035212936117,-547.3047821107377
6469.399122559971,2116.33009411872,15103.698677045028,239.1189479302733,-554.7479125707097,-444.9561503503412,-134.69160405943418,-548.9811628449656
6582.78951542315,2196.394037985446,14983.91568564866,180.64678792040277,-560.2687931221004,-417.73172722647945,-152.0365567229126,-552.1327586253142
6560.013089180773,2095.4982695280473,14833.331992228745,327.20716757817075,-556.8713281673985,-389.30030997397364,-138.78197305095034,-550.7693022948088
6348.878523640545,2110.540992649853,14912.390107654935,539.4146167883049,-559.1512059659484,-419.36340447446133,-185.49711617810226,-552.1104068821911
6570.36194624674,1989.4392484092264,14585.473512737364,219.24824829389146,-560.8052349570534,-380.69488887160355,-109.8364657066146,-555.9325549562308
6481.267898158306,1997.6646898785048,14472.776023911001,242.18113673812968,-550.3893226617171,-392.0719261212305,-154.2717310352165,-553.3621044970813
6730.266316548963,2227.664126614578,14931.99258637384,453.0251296177584,-548.5117762393818,-449.8511820942868,-112.63043359699451,-552.065703395945
6527.536006422997,2225.8089319353658,14954.567846928112,372.2682817142177,-557.2289560573671,-428.9746540173682,-14.70744697495979,-555.1725956900475
6185.844909301097,2231.06159156928,14696.226399912024,369.72018299819126,-562.5933744068965,-440.4858017257334,-52.213671935419555,-554.5914503688484
6371.699653369167,2353.616199112904,14584.534739526196,202.41738572224295,-557.5418804610896,-442.6092173224221,-29.861928812380363,-554.0103050476495
6152.004370212815,2345.3237024142563,14355.071744625076,360.1983404277766,-556.0666654149691,-442.11747897371527,-34.06405651951173,-551.0375232122852
6415.598476862817,2307.7504222244274,14768.556640658178,461.6976059494976,-555.5525753231391,-404.36538483890206,-100.67225102616852,-550.1211017442406
6463.7217798067195,2273.4628482736857,14874.906234437598,331.3869435421791,-553.6973806439269,-393.54714116735107,-116.96667176286411,-548.0870931200441
6616.808868456415,2197.0422385360143,14614.106095677978,349.8718351049325,-554.2785259651259,-399.8503327280481,-167.7274803952861,-551.0151714691622
6136.067577366089,1987.8522746474905,14463.231829597464,362.52292171257267,-552.9150696346205,-399.0233182324957,-148.43792608010327,-553.183290552097
6192.662190953623,2067.6256458536177,14519.312353093168,598.9596604680813,-555.440816607524,-403.0913354808888,-85.13778955565628,-551.3280958728848
6453.395274483875,2273.3957930443166,14885.43390544855,562.7721883518808,-558.3688949566421,-404.1642191507947,-107.42247744932637,-552.646848717144
6228.000296831149,2090.4244238391175,14751.43520542593,521.6002775192426,-557.0054386261367,-426.0689274113731,-81.74032460095432,-551.5069098178691
6584.108268267409,2370.0447303083374,14699.333292206125,387.44511529476137,-554.8596712863249,-448.1524496169358,-57.13105542248818,-554.4349881669872
6607.421136344739,2155.758568987761,14507.197708320482,258.9672958235321,-553.9208980751573,-430.8745521828265,-107.73540185304891,-549.2717355055652
6282.203273904519,2105.2212777865693,14535.249145939895,127.20377011321605,-555.9772584424769,-400.0291466730324,-71.10089487438768,-551.6633720197303
6485.917060727898,2338.931103881067,15035.838784923482,255.6592378413223,-552.1104068821911,-461.7646611788667,-106.4166490087896,-555.9325549562308
6373.890124195225,2310.85731451853,15078.03887593978,468.85016374887016,-555.2172991762935,-441.4692784231471,-0.6034970643220582,-551.8198342215916
6476.864604763067,2116.955942926165,14958.434698488398,434.5402380550049,-557.5418804610896,-399.1797804343569,-103.80149506339401,-543.0355991742372
6467.208651733914,2208.6874967031176,15121.691830259075,277.9215739918693,-554.0773602770186,-458.1883822791804,-104.38264038459303,-542.7003230273916
6540.991755783067,2326.101203328443,14831.879128925748,213.861478201239,-550.903412753547,-454.0533098014182,-87.4847225835754,-551.4398545884999
6508.022934676584,1885.1013115108794,14350.40023031236,112.83159928510186,-558.4806536722573,-378.2138453849462,-27.872623674429875,-554.3679329376181
6140.292056816343,2303.1459631410817,14882.2823096682,150.6060451630381,-562.8392435812499,-418.3799277770476,-117.74898277217048,-554.1891189926338
5954.705533665748,2592.981016217531,14986.039101245351,492.0959765968309,-560.2240896358543,-409.3721752984628,-140.77127818890082,-551.7304272490994
6367.810450065759,2317.4957822260726,14613.927281732993,212.78859453133313,-559.0394472503332,-425.5324855764202,-97.96769010828079,-554.7479125707097
6587.304567534004,2059.243742182478,15048.825147677968,71.21265359000287,-556.0219619287229,-409.03689915161726,-41.060152117023,-557.8101013785661
6555.051002207459,2404.0640833416037,15051.082673733394,143.69935653801898,-555.9102032131077,-451.4158041128996,-85.74128661997834,-553.8314911026652
6500.646859445981,2187.3192302774924,14576.532815488148,238.18017471910565,-559.0841507365793,-464.3574633811392,-81.65091762846217,-554.2338224788798
6486.319392104113,2231.2404055142642,14621.370412192966,319.3170022557379,-557.8771566079351,-455.5285248475388,-3.419816697824997,-548.0423896337979
6409.675264935211,2195.9917066092316,14920.414383436108,370.9271771268354,-550.8363575241779,-437.0659850279084,-97.07362038335921,-543.4379305504519
6514.504940182265,1992.6355476758208,15122.138865121535,342.4957598743295,-555.8207962406156,-399.8279809849251,-102.3039282741504,-550.6128400929475
6067.693595152712,2104.394263291017,14645.644405224586,451.3934523697765,-562.4145604619122,-419.56457016256866,-45.9104803747225,-550.7693022948088
6482.787816690673,2065.2340093394523,14640.034117700703,354.744515105755,-555.9996101855999,-429.444040622952,-102.9968323109646,-545.1366630278029
6382.875524930687,2112.7091117327873,14820.85971956609,198.25996150135765,-549.2493837624421,-398.5315798837888,-109.92587267910676,-548.9364593587195
6043.218436432984,2631.895400994742,15020.840765287921,142.49236240937486,-552.8256626621284,-396.341109057731,-133.97634827949693,-544.9578490828186
6266.087667112808,2748.8844245007294,14783.509956807491,189.25220902277286,-562.1239878013126,-406.5558556649599,-44.12234092487937,-541.2698114675171
6573.960576889549,2351.269266084985,14867.86543535384,323.96616482533005,-555.3514096350318,-427.7900116318471,-28.252603307521543,-551.3280958728848
6147.8245942488065,2141.296991187155,15281.819717992526,384.62879566125844,-556.1337206443382,-386.1710659367481,-20.138920553858313,-553.8091393595421
6316.915530974598,2464.9949350950083,15342.638811030316,433.7579270456986,-557.8324531216891,-452.8910191590202,23.335219820452917,-544.8013868809574
6399.259352639875,2213.0237348689875,14949.69516692729,399.6268152968177,-559.4194268834249,-429.30993016421377,-12.271106974548518,-548.0423896337979
6715.2235934271575,2354.4879170947024,14847.838273515597,271.66308591741836,-556.4466450480606,-394.44121089227264,-77.60525212319207,-554.5243951394793
6768.48779728936,2103.3884348504803,14613.68141255864,223.6738934322532,-554.4349881669872,-366.7697529059501,-104.09206772399352,-545.9636775233554
6585.941111203499,1946.6803638148524,15040.46559574995,324.0555717978222,-558.950040277841,-405.99706208688394,-96.24660588780677,-552.4903865152828
6479.926793570924,1933.917518491597,14717.371148906419,510.33499898523087,-559.8888134890087,-433.9590927338059,-60.52852037719014,-555.3514096350318
6349.79494510859,2235.8225128544873,15161.321470816223,380.2031505228967,-560.1123309202391,-411.33912869329026,-58.047476890532785,-554.926726515694
6323.933978315233,2332.963188467216,14695.24292321461,165.1570299361366,-559.486482112794,-416.25651218035887,-89.60813818026412,-550.1211017442406
6577.469800559867,2039.1271733717426,14748.99886542552,260.9566009614826,-556.9383833967676,-412.903750711903,-45.53050074163084,-551.2833923866386
6571.188960742293,2158.7089990800023,15227.236761286065,222.01986444114831,-550.322267432348,-467.2855417302574,-59.43328496416122,-554.1220637632646
6314.367432258572,2378.7172066400767,15325.182099651223,236.23557306740125,-549.0035145880887,-419.13988704323094,-116.2290642398038,-550.2105087167328
6644.815602589583,2459.4517028004943,15144.557663473945,356.5773580418442,-554.8596712863249,-421.12919218118145,-134.49043837132683,-550.4340261479632
6621.659196714115,2529.0103273993927,14958.121774084675,395.2682253878251,-553.4291597264504,-384.87466483561184,-120.96763378188813,-547.9306309181828
6614.350176712881,2253.994480013518,15072.853271535234,414.9377593360996,-556.625458993045,-414.5577797030079,-98.54883542947981,-544.108482844143
6288.17118931837,2322.212000025034,15015.45399519527,254.87692683201593,-554.1220637632646,-417.0164714465422,-117.54781708406313,-546.36600889957
6130.189068924729,2653.2860191634904,14311.798769938872,445.1126125522025,-553.2503457814661,-437.3342059453849,-113.41274460630088,-550.0763982579946
6114.520496995478,2503.6858024409894,14612.385011457503,554.3008777082489,-552.7809591758822,-419.5198666763226,-86.63535634489992,-545.9636775233554
6673.761109933919,2237.0518587262545,14728.301151293585,370.4354387781285,-552.7362556896362,-385.8134380467795,-106.70722166938911,-547.9976861475519
6408.222401632213,2182.3124398179316,14855.169645259955,271.59603068804927,-553.6303254145578,-381.4101446515408,-70.9444326725264,-544.1978898166352
6271.027402342999,2276.8826649715106,14864.043287279801,202.5514961809812,-556.647810736168,-408.8357334635099,-50.44788422869946,-548.8247006431044
6338.484963088332,2343.1555833313214,14929.48919114406,270.7019609631277,-561.162862847022,-397.65986190199027,-139.83250497773318,-544.9802008259417
6183.699141961285,2165.258059815053,14756.44199588549,337.3548589560305,-559.4194268834249,-410.623872913353,-67.92694735091611,-547.0589129363842
6280.526893170291,2045.519771904932,14442.355301520545,290.9079367463551,-556.5137002774298,-415.9212360335133,-62.60723248763278,-553.8091393595421
6546.780857251933,2300.2849400213327,14317.587871407739,106.23783506380529,-553.0044766071127,-372.7153165766785,-46.20105303532201,-552.4680347721597
6775.215671969395,2420.29144884893,14624.767877147668,375.9339675863962,-553.5632701851887,-408.23223639918785,-90.43515267581658,-553.6526771576808
6664.06045341852,2431.9814105022797,15213.199866604797,369.4296103375918,-562.0569325719435,-378.7726389630222,-120.81117158002685,-550.4563778910862
6283.410268033163,1936.9573555563304,14228.247954144952,123.04634589233076,-555.7313892681234,-445.5596474146633,-92.98325139184304,-541.6274393574857
6377.08642346182,1856.4910803133891,14474.67592207646,72.64316514987738,-555.7984444974926,-412.52377107881136,-108.87534075232392,-551.4398545884999
6287.478285281556,2097.018188060414,14716.72294835585,56.795779275642595,-550.8587092673009,-418.2458173183094,-67.45756074533229,-544.3990555047426
6347.090384190701,2482.026963354764,14716.298265236512,76.68883065514747,-549.3611424780573,-416.45767786846625,-122.06286919491704,-547.5953547713372
6185.375522695513,2264.119819648255,14031.0608763135,44.01058220926417,-549.0035145880887,-403.0913354808888,-48.592689549487204,-546.857747248277
6751.701638203957,2413.1612427926807,14487.483470885962,97.43124827332785,-551.8421859647146,-369.4519620807148,-84.44488551884207,-549.6293633955338
6542.645784774171,2371.5422970975815,15088.991230070069,86.81417028988423,-555.3514096350318,-349.96124207742463,-73.73840056290629,-545.159014770926
6342.1059454742635,2325.4082992916287,14916.949863252037,11.041761102781361,-561.7887116544671,-387.04278391854666,-118.35247983649253,-545.1366630278029
6078.020100475555,2039.0154146561274,15168.094048982504,26.978553949508306,-554.6808573413406,-392.89894061678297,-143.8781704830033,-547.9082791750598
6063.49146744558,1836.6203806770075,15071.959201810312,203.7584903096253,-550.7916540379318,-398.08454502132804,-154.80817287016944,-548.4670727531358
6090.827649285057,2032.354595205462,14930.763240502074,128.61192992996752,-557.8548048648122,-430.1816481460123,-146.001586079692,-544.0190758716509
6178.580592786108,2169.326077063446,15027.255715564235,79.05811542618963,-559.7547030302704,-408.45575383041825,-139.36311837214936,-546.0754362389705
6298.452991154968,2345.435461129872,14850.028744341656,27.96203064692203,-554.390284680741,-375.6657466689197,-139.3854701152724,-553.4291597264504
6309.94178712021,2813.279796438205,15164.227197422219,-109.45648607352294,-552.624496974021,-398.3974694250506,-53.35361083469456,-554.7479125707097
6471.321372468554,2474.539129408546,14491.640895106846,-103.13094276970284,-552.7586074327593,-428.5946743842765,-84.02020239950433,-548.3106105512744
6213.561070773665,2021.9610346532486,14563.30058355931,54.06886661463181,-553.4962149558195,-417.08352667591134,-4.6044590833460735,-544.3990555047426
6032.400192761433,2304.7105851596943,15033.313037950578,-31.158329913516635,-551.4398545884999,-456.24378062747604,-94.0337833186259,-546.8130437620308
6375.119470066992,2400.1748800381947,15100.860005668403,-113.47979983567,-552.4233312859136,-448.06304264444367,-158.8314866323165,-556.044313671846
6188.482414989615,2150.0812262345094,14620.029307605582,-62.33901157015631,-552.3786277996676,-459.35067292157845,-199.80223177684735,-549.8305290836411
6217.986715912027,2179.9208033037667,14602.997279345827,57.39927633996465,-550.9704679829161,-406.0864690593761,-134.15516222448124,-540.8898318344254
6630.331673045854,2278.5143422194924,14823.944260117069,90.81513230890825,-547.2153751382456,-421.71033750238047,-121.10174424062636,-543.5943927523132
6411.709273559408,2288.8408475423366,14765.4721001072,108.27184368800185,-553.1162353227279,-455.5508765906618,-146.71684185962926,-543.9296688991587
6319.307167488764,2113.7596436595704,14642.895140820452,112.1163435051646,-551.8868894509607,-430.20399988913533,-101.1639893748754,-542.4097503667921
6320.648272076146,2134.144433387782,14974.997340142569,114.66444222119107,-554.0550085338955,-409.1263061241094,-122.71106974548518,-549.1376250468269
5977.705477339356,2287.276225523724,14854.163816819419,136.97148185798417,-557.5865839473357,-432.6850433757927,-150.02489984183907,-547.7071134869524
5989.127218075229,2173.7964256880537,14718.086404686355,59.18741578980779,-561.0064006451606,-426.67242447569515,-102.84037010910333,-544.6896281653421
6204.709780496942,2232.9167862484924,14531.829329242071,-120.16297102945872,-553.9432498182803,-438.22827567030646,-106.5284077244048,-545.6954566058789
6584.7788205611005,2073.1465264050084,14479.079215471698,-101.32045157673667,-550.2999156892249,-434.20496190815936,-74.29719414098227,-548.8247006431044
6220.1324832518385,2204.842996885955,13950.125214464975,49.64322147627005,-556.4242933049377,-412.4790675925653,-141.75475488631457,-550.881061010424
6134.45825186123,2216.309441108074,14695.354681930225,39.786102759009765,-561.2299180763911,-403.2701494258731,-140.90538864763906,-553.1162353227279
6450.355437419143,2051.800611722506,14694.684129636533,146.13569653843024,-553.4515114695735,-402.15256226972116,-125.14740974589644,-554.3008777082489
6601.76614533461,2092.1902115458374,14889.948957559403,-15.80268238798871,-557.0054386261367,-425.64424429203535,-131.49530479283956,-549.8528808267641
6240.561976466297,2077.438061084632,14752.396330380221,-85.87539707871659,-559.8888134890087,-404.343033095779,-102.9968323109646,-552.646848717144
6152.809032965245,2137.0501599937775,14330.797751593454,31.426550830993104,-555.9102032131077,-377.7221070362393,-146.9180075477366,-549.8752325698872
6186.135481961696,2154.7303888041015,14332.340021868946,-31.538309546608303,-553.5856219283116,-453.2486470489888,0.06705522936911758,-551.8868894509607
6486.274688617867,2091.6314179677615,14653.936901923233,-98.72764937446412,-556.1784241305842,-440.30698778074907,26.0621324814637,-548.8694041293504
6293.75912509913,2125.3825500835505,14806.644010939837,-125.81796203958761,-553.9208980751573,-422.4479450254408,-73.6266418472911,-549.204680276196
6030.947329458435,2036.1543915363784,14707.066995326697,-102.14746607228912,-556.4913485343068,-442.8550864967755,-146.09099305218416,-553.7197323870499
5803.13836354842,2280.9506822199037,15102.53638640263,-99.50996038377049,-561.5875459663597,-383.265339330753,-30.867757252917126,-552.4233312859136
6175.250183060776,2230.346335789343,15203.610968805013,97.69946919080432,-553.5185666989425,-353.1351896008962,-11.019409359658322,-554.5243951394793
6359.428546394619,2200.640869178824,15243.82175468336,233.08397728705273,-550.9704679829161,-357.89611088610354,-120.76646809378077,-550.0540465148715
6454.378751181289,2319.954473969607,14850.676944892224,-18.194318902153903,-551.0375232122852,-395.5587980484246,-108.27184368800185,-548.6458866981201
6182.022761227056,2155.3338858684233,15042.074921254809,-70.89972918628033,-551.7304272490994,-419.34105273133827,-19.200147342690666,-549.227032019319
6190.047037008228,1991.4062018040538,15138.232120170123,95.53135010786951,-555.4184648644009,-412.4790675925653,-98.21355928263422,-548.9364593587195
6510.369867704503,2074.800555396113,15115.455693927746,105.58963451323716,-558.7041711034876,-379.66670868794375,-91.57509157509158,-546.321305413324
6676.3092086499455,2273.9098831361466,15104.324525852473,-37.08154184112202,-563.5321476180641,-433.98144447692897,-128.09783983813762,-548.7576454137352
6485.090046232346,2345.502516359241,14849.760523424178,30.621888078563696,-559.3523716540558,-471.8452973273574,-141.79945837256065,-544.644924679096
6132.424243237033,2087.406938517507,14772.848175337802,93.0726583643352,-554.0550085338955,-346.87670152644523,-149.19788534628663,-550.6128400929475
6141.230830027511,2265.7514968962373,14736.012502671034,-16.808510828525474,-549.6070116524107,-322.75917069668594,-111.95988130330332,-547.4165408263528
6484.307735223039,2114.9666377882145,14747.434243406906,70.87737744315729,-553.1385870658509,-425.39837511768195,-39.763751015886726,-543.5496892660672
6250.4637986698035,2148.9859908214803,14934.831257750468,151.34365268609838,-557.2960112867362,-485.27869494430394,-21.994115233070566,-547.7518169731985
6374.091289883333,2475.2320334453602,14874.99564141009,-99.48760864064745,-558.2794879841499,-431.2098283296721,-84.2884233169808,-548.1765000925362
6295.994299411434,2499.729543908211,14643.677451829759,87.03768772111462,-559.5535373421632,-370.90482538371236,-58.58391872548573,-549.0929215605809
6291.1886746399805,2418.548012885333,14485.918848867348,-1.5869737617357829,-556.8713281673985,-405.482971995054,-92.13388515316755,-551.3951511022539
6022.6548327597875,2131.5069276992635,14698.439222481204,-39.33906789654898,-554.5690986257254,-440.46344998261037,-123.51573249791458,-546.9695059638921
6104.238695158881,2456.791845368853,14941.402670228641,97.07362038335921,-553.742084130173,-439.3458628264584,-83.08142918833668,-549.2940872486881
5940.445121553249,2431.713189584803,14942.676719586654,166.1852101197964,-551.6186685334842,-393.7036033692124,-100.40403010869206,-549.9422877992563
5973.83862577907,2274.9827668060525,14549.397799336779,-42.200091016297996,-553.3397527539582,-431.0757178709339,-109.23296864229255,-550.0540465148715
6174.356113335854,2011.3439566698046,14755.816147078045,56.86283450501171,-555.9325549562308,-436.17191530298686,-87.7082400148058,-547.505947798845
5909.107977694748,2158.7984060524946,14622.018612743534,81.31564148161658,-552.3562760565445,-423.0514420897628,-97.58771047518913,-549.5176046799186
6223.82052086714,2071.403090441411,14496.96060997013,192.3591013168753,-555.5749270662621,-423.6102356678388,-118.82186644207636,-544.622572935973
6292.820351887963,2193.868291012543,14746.361359737,-30.711295051055853,-561.3863802782523,-446.87840025892257,-103.95795726525529,-547.2377268813685
6267.607585645174,2355.3819868196238,14698.193353306851,189.34161599526502,-558.950040277841,-447.5713042957368,-53.01833468784897,-546.2542501839548
6381.020330251475,2401.270115451224,14828.839291861015,190.12392700457139,-554.4573399101102,-428.1923430080618,-96.7830477227597,-547.4388925694759
6145.634123422749,2165.503928989406,15140.04261136309,169.04623323954542,-554.1891189926338,-452.13105989283684,-91.35157414386119,-546.321305413324
6131.776042686465,2072.3195119094557,14625.505484670728,102.23687304478128,-557.6536391767048,-446.1854962221084,-65.42355212113571,-545.9413257802323
6348.207971346854,2176.232765688465,14564.462874201708,115.02207011115969,-555.3067061487857,-382.4830283214467,-102.57214919162686,-548.9811628449656
6336.4956579503805,2275.7427260722357,14756.732568546091,67.16698808473278,-555.8654997268617,-395.3129288740712,-98.30296625512638,-550.92576449667
6281.532721610828,2263.5386743270565,14693.70065293912,42.84829156686613,-559.4194268834249,-430.31575860475056,-92.6703269881205,-550.344619175471
6186.940144714125,2355.404338562747,14609.8592644846,22.888184957992134,-559.1959094521945,-407.4052219036354,-71.90555762681709,-544.6896281653421
6413.586819981743,2161.6370774291204,14557.176205943597,190.97329324324687,-556.0666654149691,-401.01262337044614,-103.08623928345676,-547.6177065144602
6523.445637431481,2160.9441733923063,14541.23941309687,31.87358569345389,-555.9102032131077,-432.7073951189157,-71.39146753498719,-545.6507531196328
6311.931092258161,2209.80508385927,14831.365038833917,-74.18543542536707,-549.718770368026,-362.0311833638658,-58.09218037677886,-547.3271338538607
6510.839254310087,2363.361559114549,15023.210050058964,106.59546295377392,-548.1094448631671,-402.9795767652736,-67.27874680034797,-549.4952529367955
6290.629881061905,2201.736104591853,14511.511594743228,243.47753783926595,-555.1502439469244,-404.05246043517946,-140.50305727142435,-549.5399564230416
5912.50544264945,2171.2706787151506,15076.36249520555,123.22515983731508,-561.0287523882837,-403.6724808020878,-79.05811542618963,-544.7343316515881
6488.018124581464,2059.9813497055384,15089.527671905022,64.23890973561464,-559.3970751403018,-435.1660868624501,-96.2689576309298,-545.9860292664783
6341.949483272402,2158.2172607312955,14922.49309554655,103.28740497156411,-561.9451738563283,-399.783277498679,-164.79940204616798,-549.2940872486881
6286.204235923543,2195.499968260525,14712.431413676226,216.49898388975762,-558.6818193603646,-440.1952290651339,-144.43696406107927,-548.2212035787823
5993.3740492686065,2169.236670090954,14795.512842864564,264.0187897693389,-553.9208980751573,-438.3400343859216,-152.26007415414298,-546.7459885326617
6164.387235902979,2120.1522421927593,14768.19901276821,316.7242000534654,-553.3397527539582,-396.78814392019177,-114.86560790929842,-549.15997678995
6359.182677220266,2174.1987570642686,14515.624315477868,343.68040225985067,-553.183290552097,-418.46933474953977,-138.55845561971995,-550.903412753547
6100.975340662917,2289.243178918551,14644.884445958403,325.642545559558,-554.3679329376181,-407.9640154817114,-128.7236886455827,-548.5341279825049
5766.928539689096,2058.8414108062634,14821.977306722241,184.3795290219503,-555.1949474331705,-407.159352729282,-153.0200334203263,-549.785825597395
6053.768459187058,1927.1225885821932,14619.403458798139,338.3830391396903,-558.9947437640872,-402.2419692422133,-93.56439671304207,-545.3825322021563
6200.842928936656,2081.5284300761477,14542.312296766777,372.73766831980157,-555.9772584424769,-441.8269063131157,-29.97368752799556,-544.8684421103264
6120.108432776238,2072.386567138825,14515.333742817267,457.07079512302846,-553.4962149558195,-449.1806298005956,-82.96967047272149,-543.9520206422818
5813.531924100633,1857.0498738914653,14587.105189985346,297.8369771144973,-555.2843544056626,-414.7589453911153,-116.29611946917292,-548.601183211874
6070.733432217445,2211.4367611072516,14702.507239729597,297.3005352795443,-558.2571362410268,-404.76771621511676,-158.38445176985573,-547.0365611932613
6495.841234674528,2397.2468016890766,14621.32570870672,298.97691601377227,-555.6866857818774,-423.6549391540849,-156.26103617316699,-542.4544538530382
6234.482302336831,2099.0521966846104,14770.970628915466,276.40165545950265,-555.7537410112465,-459.0377485178559,-64.35066845122984,-546.6565815601696
6222.904099399096,1940.8242071166162,14903.829390038813,489.12319476146666,-555.7090375250004,-433.02031952263826,-48.995020925701915,-550.2105087167328
6097.041433873262,2004.0125849254478,14688.336234589591,524.6401145839759,-549.3164389918112,-443.704452735451,-19.446016517044097,-545.6507531196328
6294.541436108437,2151.2658686200302,14728.479965238568,517.3534463258652,-550.1658052304867,-427.70060465935495,-139.85485672085622,-546.6118780739234
6409.965837595811,1977.8610454714922,15095.272069887642,107.86951231178715,-551.9539446803299,-390.619062818233,-124.40980222283615,-546.9471542207691
6260.142103442079,2160.9441733923063,14960.356948396979,138.15612424350525,-555.1502439469244,-421.0397852086893,-94.50316992420971,-554.390284680741
6273.664908031518,2321.027357639513,14449.709025008025,332.68334464331537,-556.8042729380293,-395.6705567640398,-86.83652203300727,-551.8868894509607
6332.204123270757,2129.6964365062972,14721.21564872358,399.3809461224643,-551.1939854141465,-403.2701494258731,-115.04442185428273,-549.6740668817798
6480.306773204015,1906.022543074044,15058.615211165858,513.3077808205951,-549.9869912855024,-419.69868062130695,-185.76533709557873,-547.0365611932613
6103.523439378943,1998.6034630896725,14626.33249916628,439.32351108333535,-549.4505494505495,-416.5023813547123,-91.17276019887687,-550.4340261479632
6114.498145252355,2305.627006627739,14596.24705292267,351.97289895849815,-547.9976861475519,-405.6617859400383,-48.100951200780344,-548.1988518356593
6403.41677686076,2329.6327787418827,14746.115490562646,211.17926902647432,-554.7255608275867,-406.22057951811433,-123.5827877272837,-546.7683402757848
6251.69314454157,2159.2901444012014,14735.140784689234,266.99157160470315,-558.6147641309955,-423.78904961282313,-150.85191433739152,-550.1658052304867
6247.178092430717,2166.8897370630348,14966.503677755814,375.0398978614746,-560.9840489020377,-394.9776527272256,-107.69069836680283,-549.4281977074264
6093.42045148733,2277.9555486414165,15196.547817978133,169.381509386391,-559.2629646815636,-389.7473448364344,-51.40900918299015,-548.4447210100127
5837.783565389131,2237.8118179924377,15025.53463134376,144.3922605748332,-557.9218600941813,-383.19828410138393,-63.47895046943131,-554.0326567907724
5964.406190181147,2230.4357427618347,14781.833576073263,230.64763728664144,-561.6098977094828,-400.923216397954,-150.36017598868466,-544.7343316515881
6162.621448196259,2168.6555247697547,14467.925695653303,334.2479666619281,-557.5418804610896,-449.20298154371864,-68.50809267211513,-555.6643340387543
6378.941618141032,2187.5203959655996,14536.23262263731,193.99077856485715,-548.1988518356593,-427.9688255768314,-140.14542938145573,-547.5730030282142
6368.056319240112,2211.5485198228666,14382.98907178575,298.6863433531728,-546.902450734523,-450.8123070485775,-82.5226356102607,-547.3718373401068
6142.862507275492,2214.1860255113857,14637.262501553447,241.15295655446988,-554.2338224788798,-439.7928976889192,-45.06111413604702,-546.902450734523
