CH1,CH2,CH3,CH4,CH5,CH6,CH7,CH8,Label
-187500.01117587156,-24037.779810296288,187499.98882412844,187499.98882412844,-187500.01117587156,-187500.01117587156,-187500.01117587156,187499.98882412844,0
-187500.01117587156,-18138.68541352066,187499.98882412844,187499.98882412844,-187500.01117587156,-187500.01117587156,-187500.01117587156,187499.98882412844,0
-187500.01117587156,-26560.174021731258,187499.98882412844,187499.98882412844,-174248.78026537778,-187500.01117587156,-187500.01117587156,187499.98882412844,0
-187500.01117587156,-50945.43403061831,187499.98882412844,187499.98882412844,-165929.23795755135,-187500.01117587156,-187500.01117587156,187499.98882412844,0
-187500.01117587156,-46424.25754214868,187499.98882412844,187499.98882412844,-160319.7997999072,-187500.01117587156,-187500.01117587156,187499.98882412844,0
-187500.01117587156,-41589.93313252527,187499.98882412844,187499.98882412844,-159649.40396841787,-187500.01117587156,-187500.01117587156,187499.98882412844,0
-187500.01117587156,-20257.496551126038,187499.98882412844,187499.98882412844,-157883.07981986282,-187500.01117587156,-187500.01117587156,187499.98882412844,0
-187500.01117587156,2383.9028110446225,187499.98882412844,187499.98882412844,-150510.69262687518,-187500.01117587156,-187500.01117587156,187499.98882412844,0
-187500.01117587156,-5671.553651783088,187499.98882412844,187499.98882412844,-139895.22396893645,-187500.01117587156,-187500.01117587156,187499.98882412844,0
-187500.01117587156,3762.0442367818496,187499.98882412844,187499.98882412844,-127819.18065662267,-187500.01117587156,-187500.01117587156,187499.98882412844,0
-187500.01117587156,-1254.9162658999126,187499.98882412844,187499.98882412844,-125212.34155966887,-187500.01117587156,-187500.01117587156,187499.98882412844,0
-187500.01117587156,-5458.519188077401,187499.98882412844,187499.98882412844,-110341.39158376405,-187500.01117587156,-187500.01117587156,187499.98882412844,0
-187500.01117587156,-10768.443987872839,187499.98882412844,187499.98882412844,-95635.48687907975,-187500.01117587156,-187500.01117587156,187499.98882412844,0
-187500.01117587156,-13987.206756306097,187499.98882412844,182022.0459712771,-89791.958915708,-187500.01117587156,-187500.01117587156,187499.98882412844,0
-187500.01117587156,-17608.166790495325,187499.98882412844,156533.68273578183,-88077.73668037276,-187500.01117587156,-187500.01117587156,187499.98882412844,0
-187500.01117587156,-24399.743938430784,187499.98882412844,151798.75652782657,-83866.28829635907,-187500.01117587156,-187500.01117587156,187499.98882412844,0
-187500.01117587156,-29803.300190168633,187499.98882412844,155191.0582298671,-78929.23527534217,-187500.01117587156,-187500.01117587156,187499.98882412844,0
-187500.01117587156,-29807.9270009951,187499.98882412844,160856.0851726583,-77606.86144869695,-187500.01117587156,-187500.01117587156,187499.98882412844,0
-187500.01117587156,-31956.600067412855,187499.98882412844,166416.97534423918,-80221.92598712003,-187500.01117587156,-187500.01117587156,187499.98882412844,0
-187500.01117587156,-29487.246542408855,187499.98882412844,171934.41372718892,-81613.47845873109,-187500.01117587156,-187500.01117587156,187499.98882412844,0
-187500.01117587156,-28693.245571449133,187499.98882412844,166350.32244624628,-84303.354281387,-187500.01117587156,-187500.01117587156,187499.98882412844,0
-187500.01117587156,-29609.756446466232,187499.98882412844,162069.181327175,-85616.22861720494,-187500.01117587156,-187500.01117587156,187499.98882412844,0
-187500.01117587156,-31610.72919432695,187499.98882412844,156884.00160574922,-87236.90880757026,-187500.01117587156,-187500.01117587156,187499.98882412844,0
-187500.01117587156,-30950.928089077956,187499.98882412844,153287.8743581697,-87879.78964327511,-187500.01117587156,-187500.01117587156,187499.98882412844,0
-187500.01117587156,-31237.835063805287,187499.98882412844,151312.22613526738,-84806.71553651783,-187500.01117587156,-187500.01117587156,187499.98882412844,0
-187500.01117587156,-27791.799771296963,187499.98882412844,155988.83664541462,-79689.50746592923,-187500.01117587156,-187500.01117587156,187499.98882412844,0
-187500.01117587156,-31665.75918589587,187499.98882412844,156726.75709287863,-73809.36734732195,-187500.01117587156,-187500.01117587156,187499.98882412844,0
-187500.01117587156,-34899.7211396528,187499.98882412844,149876.30545355708,-72428.94604378617,-187500.01117587156,-187500.01117587156,187499.98882412844,0
-187500.01117587156,-33248.262599007045,187499.98882412844,146015.42180868518,-71868.65489892094,-187500.01117587156,-187500.01117587156,187499.98882412844,0
-187500.01117587156,-30483.57549211833,187499.98882412844,142915.72677586833,-69631.5136332222,-187500.01117587156,-187500.01117587156,187499.98882412844,0
-187500.01117587156,-26643.456616607702,187499.98882412844,139894.7992858171,-65229.695453029606,-187500.01117587156,-187500.01117587156,187499.98882412844,0
-187500.01117587156,-25801.488804905937,187499.98882412844,135458.96175259122,-63527.029068888965,-187500.01117587156,-187500.01117587156,187499.98882412844,0
-99609.38093718178,16630.14391840362,82031.23253770068,-15941.799637186505,164071.8975109993,91826.07929862018,42070.22738875314,89794.75288359838,0
23437.501396983946,0.0,0.0,0.0,0.0,0.0,0.0,0.0,0
-105374.92366879723,187499.98882412844,116468.36200167907,147.5438563551817,-30618.602372324607,-74356.22509457023,-60497.80908213908,54505.48556479726,0
-104308.43259742454,187499.98882412844,114949.94103610163,131.45060130659348,-30114.883489303797,-73442.68700138849,-59359.56891534143,53912.873799376124,0
0.0,0.0,0.0,0.0,164062.50977888762,67947.19803018558,140624.98603016054,-65390.493893056744,0
-101189.96210038436,187499.98882412844,110479.43594929193,40.41195156645486,-29206.575704012852,-72126.05757272585,-57201.7986894726,52867.28160782347,0
-100151.4330596586,187499.98882412844,109131.22350759647,118.26307286400038,-28650.956073460344,-71433.62292251723,-56489.38158091197,52572.797392177425,0
0.0,0.0,0.0,0.0,0.0,0.0,0.0,0.0,0
-99155.95347618779,187499.98882412844,107713.67595873332,112.49632313825626,-28048.241320147594,-70870.38134755977,-55867.91371511899,52420.82789068388,0
-98190.8499116212,187499.98882412844,106494.96951669273,102.28157653102735,-27702.7727784379,-70361.87919151063,-55255.67711923582,52279.78839157751,0
-97288.04065513854,187499.98882412844,105643.92689728302,79.39339157303522,-27721.861167064973,-69697.47362717829,-54578.5757648096,51712.67996505975,0
-96427.96793150711,187499.98882412844,104968.3901648754,31.87358569345389,-27955.146310040138,-69077.48097643143,-53942.55691424352,51199.550998184146,0
-95647.31095119183,187499.98882412844,104388.45183780503,38.02031505228967,-28216.147614487865,-68485.02567321216,-53240.22044183138,50560.17938614961,0
-94924.76850299648,187499.98882412844,103862.6047290924,33.75113211578918,-28549.412104452378,-67903.29920669193,-52563.454363551995,49590.6948799309,0
-94195.8111045248,187499.98882412844,103381.08112699277,22.307039636793114,-28853.88754927442,-67306.93234842613,-51977.61517629714,48937.778111563806,0
-93482.58933321174,187499.98882412844,102772.33140303679,7.107854313126464,-29116.699344915112,-66802.36409916663,-51427.941109415355,48218.94605272687,0
-92809.7348099789,187499.98882412844,102515.77809547055,33.684076886420065,-29404.545092853612,-66199.06820053268,-51169.19733102305,47323.24465055732,0
-92196.06770253586,187499.98882412844,102244.87496881932,25.391580187772526,-29720.93401676023,-65890.63649717787,-50789.73178802322,46396.29551150176,0
-91677.06022721887,187499.98882412844,101630.02321899075,18.082560186538707,-29761.770651446022,-65726.08296430606,-50293.45603546238,45923.91377233945,0
-91072.24441005256,187499.98882412844,100841.43136986681,22.687019269884782,-29593.19380481206,-65444.696870130116,-49681.44295701044,45725.81027303995,0
-90595.66054318311,187499.98882412844,100130.62358681105,33.10293156522104,-29309.79605375505,-65294.4037493708,-49138.07208168936,45672.5013656915,0
-90150.50322714467,187499.98882412844,99340.60122612721,24.89984183906566,-28954.045710208757,-65157.812247145914,-48741.5968621729,45754.93459432927,0
-89717.01352101644,187499.98882412844,98596.51169756125,23.066998902976447,-28569.57337674936,-64934.40657463113,-48382.67257110313,45847.40375562928,0
-89218.86022203328,187499.98882412844,97974.93207305265,33.37115248269751,-28243.03676146488,-64680.04373789095,-47985.772668467325,45893.56010517836,0
-83574.03925502533,187499.98882412844,92610.80429618385,-0.5364418349529406,-29212.521267683584,-63104.04468202857,-40396.26064278249,41727.150483557605,0
0.0,0.0,0.0,0.0,0.0,0.0,640.8691788237797,285.05178004811887,0
-275.6640479364424,-120849.61657819847,154511.76640461484,-22400.26875735931,-103310.33786000834,-100302.106160051,2563.476715295119,0.0,0
-82928.23034097136,187499.98882412844,92768.09351254067,17.836691012185277,-30390.435778524625,-62704.14964581428,-39473.69244537904,40067.5782601582,0
-82710.39025249422,187499.98882412844,92759.35398097956,2.4586917435343114,-30856.782547043716,-62530.70011917949,-39201.850545516645,39525.213213277646,0
-82475.33932181235,187499.98882412844,92750.74855987719,0.2682209174764703,-31146.707007092657,-62430.296089070805,-38967.26900144035,38940.71513061017,0
-82287.83054875318,187499.98882412844,92807.92431878592,-1.1622906423980381,-31427.154328057426,-62325.958152172454,-38663.73232982947,38349.28800757456,0
-82075.33252688244,187499.98882412844,92759.30927749332,-0.7599592661833326,-31813.43715270979,-62234.60657802859,-38302.86343710801,37977.10913283283,0
-81435.04449337986,186861.93596493817,91491.16077966455,0.7823110093063718,-31368.771575020048,-62271.15167803477,-37290.21771491871,38089.337235053616,0
-81228.4473316936,186437.11873514167,91027.29505463212,-1.7657877067200964,-31154.284248011365,-62313.06119639046,-36867.56860420517,38296.56024554731,0
-80682.93068903271,185617.50266656297,90303.36679836313,-1.274049358013234,-30872.786395119812,-62400.23299457032,-36434.883560829374,38483.554928514655,0
-80533.03989964962,185210.99151438425,89892.87703590852,-3.196299266594605,-30478.881626062488,-62464.293090360945,-36090.68906847769,38709.44164451609,0
4.492700367730878,52405.315780956495,64443.04820555735,49615.840590944325,-1368.0384378456138,119698.52415910507,123206.54083529359,-156365.77644144156,0
-80117.92332636853,184472.86990123213,89480.6214857472,-23.22346110483772,-30449.936118718153,-62472.2056074265,-35528.45332196076,38506.66663090388,0
-79866.1532918306,184134.17393768873,89469.55737290128,-25.838615050233308,-30791.560160610687,-62414.02402007723,-35216.713560623735,38048.00886201911,0
-79635.32684059898,183802.38466277032,89521.05578905677,-3.777444587793624,-31104.283398645126,-62328.86387877845,-34883.7172915767,37455.173579166745,0
-79461.49733433111,183468.13669610835,89602.95257585958,1.5422702754897044,-31328.91841703167,-62232.43845894566,-34616.65866474263,36810.661066213914,0
-79218.01979649185,183138.82846467663,89646.53847494951,0.0,-31678.946714338465,-62151.189872693416,-34316.29594065523,36624.35928728338,0
-79027.2476689367,182796.10918737107,89553.33170612644,-10.639429726566656,-32182.285617726182,-62109.66033397081,-34072.68429235722,36484.03504395694,0
-78843.27047129098,182445.96913134865,89559.5901942009,-45.79872165910731,-32711.083156531047,-61995.88996147454,-33815.32632203855,35867.641023852884,0
-78686.45064153973,182099.40535422595,89632.30041458014,-42.04362881443672,-33076.735322280845,-61832.99045759383,-33549.6535032781,35184.57175401281,0
-78478.24415434862,181728.54523232847,89448.77025179686,-35.606326795001436,-33180.42505862862,-61767.70101593143,-33280.11383295737,34874.26250423566,0
-78224.77538733336,181339.9378263913,89079.0724205418,-15.042723121805379,-33034.42347254893,-61712.1792860138,-32922.44123950251,34838.87969487189,0
-78088.5191612553,180929.11278778987,88613.95499789447,-19.468368260167136,-32858.55995765686,-61724.89742785081,-32574.31284036117,34892.03214001847,0
-77902.77617590285,180524.92621689595,88058.91651266316,-21.27885945313331,-32537.90185081374,-61787.012921989735,-32225.02215057743,35071.650747755215,0
-77680.71160797546,180130.2167850862,87671.9631357171,-15.735627158619591,-32250.525489480828,-61861.1983574151,-31857.64890060716,35270.82713072462,0
-77492.64404133821,179739.39655657986,87215.607596374,-21.837653031209292,-32020.4813492585,-61880.845539620255,-31507.598251557247,35438.375797174915,0
-77310.07500350922,179365.67541156264,86788.33167483399,-4.068017248393133,-31646.313169378827,-61975.95220660879,-31176.121901042574,35606.438553717046,0
-77125.82958494601,178986.791013884,86346.63887897962,-3.1739475234715657,-31279.297547298524,-62097.657447913734,-30884.141080626316,35852.82181816231,0
-76928.39663794021,178624.17868519895,86063.35288663821,-17.568470094708804,-31145.388254248395,-62049.26592405236,-30584.381853603234,35831.14062733296,0
-76753.02486139684,178303.07354349337,86029.69116149492,-9.208918166692147,-31226.413323069413,-62027.718843681745,-30301.967579243636,35493.29403002823,0
-76601.12241513268,177998.26282252447,86091.58313820261,-1.0058284405367637,-31467.54392788076,-61905.410105312476,-30052.052739384933,35071.762506470826,0
-73767.74840162686,172805.8858398131,83712.10597229635,-24.363400004112723,-31130.591400300946,-63935.19425005878,-26762.21142782041,33193.187903951875,0
-73586.65457884398,172487.39585205293,83790.35942497011,-32.38767578528379,-31154.53011718572,-64009.06676108042,-26594.81922357197,32868.327669401624,0
-73091.25054426496,171580.00448823,84066.51521125528,-59.81326459725288,-31925.262923554354,-64307.84251140609,-26056.276324765466,31515.8013412834,0
-72936.21885396355,171274.83613937115,84089.17987878203,-63.613060928169546,-32246.099844342465,-64428.653682986114,-25915.77326749404,31124.08704305214,0
0.0,0.0,0.0,0.0,0.0,0.0,0.0,0.0,0
-72761.539981457,170955.51913711542,84159.11848301403,-57.68984900056416,-32543.80271099822,-64495.21717400654,-25752.203211319636,30638.495423704113,0
-72622.35567702983,170663.6500754148,84289.54090413696,-60.21559597346759,-33003.26514263541,-64615.62601421035,-25590.868329457542,30110.21197499108,0
-72452.9294641572,170345.40595682897,84275.2134367951,-51.990154504189164,-33156.911024863184,-64803.31360121451,-25403.583073829595,29750.103041535796,0
-72286.67719880803,170004.31835677137,84045.83984886645,-40.16608239210143,-33104.58559421215,-64932.7301938969,-25129.50599965489,29657.656231978905,0
-72106.36568703446,169655.4747018501,83782.02222478522,-31.672420005346538,-32783.72632168092,-65347.64560148988,-24860.972157774693,29739.977701901058,0
-71903.07658333042,169299.76906179005,83429.46818050552,-49.777331935008284,-32440.291788595427,-65761.84575330291,-24588.30324341674,29960.90233092918,0
-71710.44926109607,168960.04491806298,83041.73249255016,-57.68984900056416,-32039.07799953687,-65808.11386156762,-24324.150343188663,30177.33425958957,0
-71519.38656088033,168625.95341360293,82737.05588204002,-90.56926313455482,-31784.849273255422,-65881.98637258925,-24149.694988113344,30390.7039994421,0
-71352.41903975123,168302.23311795195,82371.67193720769,-121.16879946999548,-31400.488698511643,-65934.2223962678,-23966.701267165023,30584.71712975008,0
-71260.06163716683,167996.14834762504,81986.93138283082,-121.79464827744057,-31137.296923237856,-65936.8375502132,-23716.384095930105,30847.68538759264,0
-71090.23309291799,167670.19287766176,81649.55417213167,-135.71978424309398,-31102.271741764052,-66051.45728894814,-23484.574168001065,31013.155341932496,0
-65739.00227183117,157508.33049466196,76984.00777483033,-90.9045392814004,-30671.73246572807,-73168.7216859294,-16581.104193991672,26092.441445138542,0
-65461.10304958243,157259.57794544566,77020.30700566215,-88.57995799660432,-30982.421695138317,-73331.2188584339,-16391.583764051426,25705.577475164977,0
-65179.29227228715,156999.94009732842,77029.73944126007,-117.34665139595577,-31305.15851409188,-73458.84731166645,-16184.51721575959,25284.716503901273,0
-65027.23336382111,156738.3352958164,76978.97863262765,-123.15810460794596,-31599.106287902967,-73633.25796325553,-15987.307786185012,24892.979853926885,0
-64933.42309793372,156479.34564824973,76947.19445390669,-112.7421923126097,-31861.02401381874,-73793.25174053024,-15817.412186706792,24562.285814421524,0
-64810.60026947262,156232.38123848327,76968.1603889561,-83.68492625265874,-32153.340110381843,-73920.14258623973,-15728.049917700882,24094.642644801297,0
-64653.10988742769,155961.656925777,76878.66400949145,-41.1719108326382,-32192.52271607653,-74115.22860021761,-15587.546860429458,23761.534617038644,0
-64484.26481987625,155682.05897105092,76609.79489146441,-67.97165083716219,-32257.633343793954,-74346.94912117417,-15329.965372679553,23808.205056679548,0
-58648.15763522134,146333.91179644538,71964.45446994629,-66.40702881854943,-28855.720392210507,-74388.702177328,-12312.211830151786,23389.847480645625,0
-58510.40384235405,146130.3991753101,71912.35255672649,-65.95999395608865,-28721.118195123563,-74346.36797585296,-12262.702719134255,23430.013563037726,0
-58354.34397186899,145955.6755993173,72026.18998445212,-74.85598771905826,-28816.716600460804,-74162.56959215221,-12273.945645925143,23238.45912447328,0
-58053.93654429534,145635.4198238504,72360.08032322409,-72.3749442324009,-29110.172635923187,-73738.46761813566,-12326.472242264284,22327.022095145112,0
-57943.04954666195,145534.00996530117,72507.73593829489,-64.30596496498376,-29233.889534109207,-73519.93462562171,-12321.890134924062,21989.063739124762,0
0.0,0.0,0.0,0.0,0.0,0.0,0.0,0.0,0
0.0,0.0,0.0,0.0,0.0,0.0,0.0,0.0,0
-57563.02521008403,145219.25271864253,72817.95578109955,-78.49932184811365,-29768.029139520473,-72873.70102844841,-12291.536467762975,21078.58783475088,0
-57260.18144250997,144871.3254851893,72694.08242071167,-52.70541028412642,-29708.461744097574,-72579.50738546297,-12264.13323069413,20691.030960740503,0
0.0,0.0,0.0,0.0,0.0,0.0,0.0,0.0,0
-57070.01281201916,144669.7351139626,72454.20351351521,-63.56835744192347,-29425.600434875512,-72501.05276710111,-12220.279110686726,20817.832399477506,0
-56892.69643382409,144420.66964034256,72124.5376541935,-93.05030662121216,-29253.782585488712,-72505.97015058817,-12144.685515444608,21042.579176579668,0
-56761.53640517809,144163.0210973633,71733.98564660463,-71.25735707624895,-29034.713151139807,-72599.73571298932,-12103.37949415323,21425.978626369157,0
-56614.21606625414,143946.23154081294,71380.24695993941,-73.80545579227541,-28741.145356961806,-72684.3147089669,-12066.52146974334,21882.289462226,0
-56476.01523852439,143791.69158886024,71056.3925538297,-74.85598771905826,-28402.56115213401,-72724.43608787276,-11998.795688080532,21975.652693250937,0
-56325.431545104475,143558.67466680254,70652.45185211014,-57.42162808308769,-28011.450350967072,-72830.40570201908,-11978.723822756043,21976.77028040709,0
-56199.68063829426,143310.39150419182,70296.32152893076,-49.66557321939309,-27745.196386885425,-72914.8282357948,-11923.425610269642,21972.657559672447,0
-56054.81899111384,143104.0849151662,70208.00979185163,-57.15340716561122,-27756.036982300102,-72800.27555228923,-11871.56956622419,21972.612856186202,0
-55869.724206311956,142905.93671238044,70239.10106653578,-78.16404570126805,-27883.777194248272,-72583.57540271136,-11832.699884933227,21956.13962150452,0
-55743.794485556755,142716.5280411558,70259.66467020898,-58.047476890532785,-28010.019839407196,-72392.82562689934,-11871.92719411416,21609.017050803723,0
-55622.26805819678,142584.98803287672,70305.46339186808,-34.980477987556334,-28202.982437788392,-72218.28086485152,-11922.464485315351,21060.818198968067,0
-55567.930970664675,142479.1972326754,70347.79759334312,-26.799740004523994,-28414.83225910856,-72033.61076316897,-11930.064077977184,20760.924861486248,0
-55419.85067247454,142335.65433833923,70426.8557087693,-31.60536477597742,-28615.93089198654,-71839.86585377846,-11991.240798904944,20553.90301668066,0
-55315.400976860576,142228.92476492672,70601.98161613832,-47.028067530874466,-28810.41340890011,-71616.50488474994,-11996.538162025105,20316.28163553963,0
-52138.927706416114,139068.6118047602,315.4277989523291,125379.75611566044,153142.96800750305,-41748.11641860702,-130397.20835669091,43877.36582025085,0
41400.47975781439,97778.3261405424,0.0,0.0,0.0,0.0,0.0,0.0,0
0.0,0.15646220186127435,0.06705522936911758,168411.28727264926,179129.81981812834,-103742.7770342098,-126.80143873700135,-104693.53077969138,0
-51397.29686959367,138354.00422537353,67733.96240079179,-27.537347527584288,-26054.1752609119,-69732.27529122087,-10934.606846249511,164062.50977888762,0
128298.53613963937,110703.51217410041,-93754.8782679366,180987.42848559786,170110.5785435783,184767.51057908003,98621.76916729027,-93750.00558793578,0
-51269.53430590238,138083.36931963978,67919.25835128178,-7.040799083757347,-26148.790189551724,-69336.13534785125,-10919.921751017675,19192.547750028836,0
-51269.53430590238,138012.64840439847,68040.67301992612,-11.08646458902744,-26355.454406467343,-69134.92495625764,-10905.32606275833,18810.310590881738,0
-51269.51195415926,137910.94797318865,68122.54745498582,-22.77642624237694,-26583.755110726066,-68928.88658814947,-10899.626368261956,18402.614796317506,0
-51269.5566576455,137573.36959680138,68162.55707517605,-92.89384441935088,-27009.578168963086,-68493.49698385579,-10851.525417061175,17535.210700941723,0
-51267.07561415884,137451.21732063396,68203.68428252244,-115.89378809295822,-27210.40858092359,-68272.08061647895,-10840.483655958393,17021.47823700179,0
-51118.81650202373,137323.0971290527,68139.8924076493,-109.34472735790774,-27340.965112505262,-68076.50286415235,-10791.667448977676,16648.740568681987,0
-50820.756007478,137140.66220168248,67877.1700189811,-59.477988450407295,-27234.43670478086,-67943.2417716528,-10744.080587868726,16587.40738555237,0
-50669.92644488373,136894.88243430154,67481.9241453364,-77.15821726073129,-27047.240856125405,-67868.6316531081,-10723.539335938653,16696.03685713034,0
-50544.3543520185,136655.56232068312,67028.00494599371,-88.84817891408079,-26783.356176814803,-67898.94061678293,-10712.385816120255,16907.663161019274,0
-50434.78610722936,136399.07606834624,66579.7630894043,-65.95999395608865,-26465.17911345834,-68023.21630854704,-10662.854353359602,17190.61387721383,0
-50340.30528904827,136163.7569167469,66150.92254584566,-55.45467468826024,-26156.009802580465,-68136.60670141022,-10603.242254450455,17421.954418537283,0
-50221.72929178055,135935.54561946067,65765.5114391751,-49.19618661380927,-25878.691725652916,-68210.12158454189,-10550.089809303869,17630.697347563346,0
-50108.47300937611,135704.4732990547,65341.744741305396,-58.13688386302494,-25605.15109331316,-68334.84431116845,-10500.111311680754,17916.4643833914,0
-49999.91059302751,135496.35621883607,64977.21016271175,-36.45569303367692,-25348.351916572567,-68420.27267338471,-10446.444776442335,18159.003148019503,0
-49879.36764236496,135321.31971843954,64878.8848447135,-58.047476890532785,-25326.08958042202,-68370.98707979842,-10413.654769280836,18105.090743606732,0
-49786.697315376834,135170.95954245087,64977.61249408797,-51.6101748710975,-25408.99219566537,-68230.6181329857,-10410.033786894905,17902.852171829472,0
-49676.7490909546,135015.8607969201,65096.747284933765,-50.89491909116025,-25531.099768346532,-68061.63895497554,-10414.459432033265,17662.459174541185,0
-49540.694030564664,134884.07491946666,65264.586524044666,-51.207843494882795,-25724.688215535174,-67877.70646081604,-10416.202867996863,17364.823363114796,0
-49435.81965183136,134806.6931847747,65416.198397648244,-81.62856588533913,-25913.068706576152,-67697.99844610681,-10435.827698458892,17096.378928207097,0
-47102.25296629983,130942.18855751686,62946.50959649739,-78.61108056372885,-25395.44703933281,-65862.36154212723,-9875.469498364298,16249.001994669557,0
-46957.05604297257,130726.53893986577,62585.506593317186,-59.43328496416122,-25120.610005891922,-65917.90562378798,-9805.486190646063,16564.496848851253,0
-46703.92255210415,130403.71271393972,61940.70350770375,-68.06105780965434,-24559.625956989883,-65917.99503076047,-9692.967515764685,17107.107764906155,0
0.0,0.0,0.0,0.0,0.0,0.0,0.0,0.0,0
-46417.01557737682,130049.05760580646,61530.75018708409,-54.00181138526269,-24321.736354931378,-65927.49452158777,-9600.610113180288,17436.214830649784,0
-46289.007144511175,129950.39701166136,61664.95005279482,-66.71995322227198,-24383.784793840932,-65922.42067589883,-9591.73647116044,17236.636116304166,0
-46188.06667256753,129980.7953823087,61864.46171191107,-56.795779275642595,-24458.372560642514,-65901.47709259254,-9589.478945105013,16957.64165864239,0
-45933.21209747864,129924.82661752861,62373.67912374014,-47.36334367772005,-24737.45642527678,-65275.963561294295,-9627.968646762887,16260.535494121046,0
-45809.40579232012,129864.94629770199,62626.43263497547,-11718.750698491973,41163.50657722393,63104.379958175414,54737.11667878131,140618.95105951733,0
132512.5326223691,-94956.30681254307,1950.4131049164,-46875.00279396789,0.0,0.0,0.0,0.0,0
-45580.07690787774,129872.45648339132,63233.48362645409,-55.52172991762936,-25340.864082626347,-64698.28276027935,-9656.98120933659,15189.641129353113,0
-45461.63502106875,129844.27093531316,63480.492739706795,-61.713162762711214,-25478.93079989736,-64524.900288873934,-9649.851003280342,14890.597158109971,0
-45333.31366379938,129760.13897419805,63512.67924980397,-69.42451414015973,-25384.338223000657,-64425.47973546264,-9632.640161075602,14852.778008745789,0
-45201.28191717159,129675.55997822047,63460.82320575852,-70.00565946135875,-25180.78089837914,-64329.23312957484,-9603.962874648743,14934.250112429268,0
-45054.47566833947,129549.20557434594,63341.91193234395,-37.2380040429833,-24881.37929924603,-64255.204156351334,-9571.955178496552,15094.623869337074,0
-44926.19901455635,129448.0862884573,63194.43513121814,-10.773540185304892,-24569.281910019035,-64208.2207923067,-9556.51012399853,15329.384227358354,0
-44797.83295380074,129284.98561888849,63040.85630421974,-26.956202206385267,-24348.69255713776,-64194.22860111168,-9542.3167671154,15543.826850880792,0
-44683.570842955756,129165.71671758396,62870.223097218455,-21.167100737518115,-24048.352184793486,-64228.56087854867,-9501.882463805821,15714.750630542672,0
-44574.49433651533,129039.36231370941,62620.04003644228,-19.870699636381843,-23725.57066235367,-64314.212758196154,-9445.690181594502,15949.04160195837,0
-44459.82989429414,128879.3014812053,62360.93863016001,-35.9863064280931,-23550.265941039677,-64416.2261138097,-9394.884669475834,16127.788491713316,0
-44344.04786491679,128718.1677650313,62340.93382006489,-54.582956706461715,-23504.1095914906,-64336.296280401715,-9364.910981947838,16015.895665639378,0
-44233.47379168712,128595.76961968954,62436.3087079709,-32.09710312468428,-23541.01231938674,-64185.95845615616,-9351.32112212903,15749.686405043984,0
-44144.22328139683,128531.59776518331,62537.830325235744,-1.4305115598745084,-23654.35800876367,-64022.388399981755,-9338.424166347037,15436.359669945221,0
-44046.970847068485,128467.96235251201,62660.13906360501,-16.383827709187727,-23838.558723840637,-63836.82422857428,-9329.438765611574,15079.581146215269,0
-41680.39063694421,125758.59580985282,61481.12931735094,-30.55483284919458,-23482.33899368876,-61832.11873961203,-8882.98504847199,13309.725422246778,0
-26367.18907160694,10423.713053686204,-171860.3624022223,-80124.33827664485,187498.6924230273,-12434.40880980544,-119121.84918653066,-58869.95398223126,0
-41212.50159814963,125199.22108645565,60604.96333867093,-46.84925358589015,-22351.452550378595,-62030.13283193903,-8753.143772670255,14315.24093837982,0
-41099.647647121405,125034.60049835447,60359.07181257437,-39.18260569468771,-22074.894432717232,-62138.73995177388,-8716.755134865947,14596.023535491438,0
0.0,0.0,0.0,0.0,10.013580919121559,5.096197432052936,3921.5015722216112,105011.90900873595,0
-11043.906870121175,-3823.288012938977,-158586.64563814673,25634.99067038242,2042.770507500798,0.0,0.0,0.0,0
-40929.19325406511,124921.29951246378,60353.75209771109,-43.429436888065155,-21978.67017857255,-62016.96765523956,-8692.257624403097,14485.561220977379,0
-40830.018569828186,124820.76137189635,60492.95875388138,-44.63643101670927,-22139.490970342813,-61864.41700842482,-8706.071001653136,14260.501519471498,0
-40725.81474338858,124756.8800900507,60661.423841799726,-46.22340477844505,-22420.899416261876,-61691.4145166525,-8720.733745141848,13987.139701076729,0
-40629.92576539074,124726.9958094952,60817.5954710004,-45.32933505352349,-22614.823139597363,-61512.600571668176,-8734.144791015673,13705.351275524574,0
-40531.51104042,124624.33425333108,60921.06168991695,11.6899616533495,-22813.194859814335,-61344.537815126045,-8741.69968019126,13461.426702822848,0
-40436.024393798376,124530.07695258122,61027.85831855883,582.7546467038778,-23018.294454711347,-61177.68205271256,-8750.52861872486,13206.817996908307,0
-40351.91478442638,124489.84381495975,61191.27191253137,1678.5935567971205,-23231.865360251984,-60985.32295139568,-8756.094202762497,12880.773119972533,0
-40262.574867163596,124470.93424027767,61276.0967776833,2390.2507060915655,-23359.739682658892,-60812.52162531147,-8755.222484780697,12642.034151675352,0
-40148.580977236095,124329.8053341988,61172.876427941104,2115.3466174213063,-23296.52895310694,-60708.29544712874,-8731.239064409678,12650.527814062107,0
-40050.680342357184,124252.98239308491,60964.91580992435,1372.9781730758054,-23151.175567577815,-60623.112954086835,-8698.22553981695,12766.466305641312,0
-32325.180311511776,117637.96166407834,60825.642098524695,2417.1398530685815,-20752.453550842616,-55259.07458419052,-7895.328575094257,10165.215144468257,0
-32104.792124318603,117426.69298807936,60487.281411128126,1936.9573555563304,-20292.07469773738,-55183.99507904023,-7867.925338025411,10599.643623807648,0
-31914.534086855296,117203.60023996832,60144.22685767573,1554.3625685192685,-19836.814393807315,-55315.24451465872,-7819.399703705293,11049.98654425064,0
-31833.419611061785,117151.40891977602,59979.13688296896,1426.5105978554843,-19609.877145879098,-55383.39497944086,-7788.643705167991,11286.110358602426,0
-31745.64431581761,117012.89516764255,59784.207331192934,1302.570182238232,-19397.26736529275,-55479.68628881492,-7752.29977084993,11545.323523600313,0
-31664.66395048284,116890.78759496138,59742.00724017664,1290.7908136123904,-19305.8263841764,-55517.43838294973,-7721.34260662452,11634.506978661238,0
-126386.7468468396,92249.57777557241,-135359.65295789557,5667.485634534694,-77428.6957042632,153337.0481930404,-30857.56485805302,45940.968152342335,0
-31530.084105139023,116763.94145273813,60137.47663125257,1588.761901185626,-19469.530550809537,-55284.22029520394,-7723.153097817487,11269.994751810715,0
-31470.650820174862,116766.0425165917,60379.724823220065,1793.1685920458192,-19632.720627350845,-55138.73279921608,-7734.641893782728,11008.27819158305,0
-31421.23111612982,116808.15320063551,60615.75923059936,2004.0796401548168,-19824.34212114466,-54976.481495885935,-7745.817765344248,10727.897925847645,0
-31350.24197997105,116740.44977071582,60815.047372284374,2171.740065320734,-19990.594386493824,-54836.09019733013,-7757.3065613094905,10487.862556449327,0
-31281.91270124392,116686.67147676178,60953.78464184908,2305.3587857102625,-20170.749436065522,-54694.82718079252,-7767.655418375458,10248.11775971161,0
-31213.941050406756,116684.16808153201,61027.925373788195,2471.521644086936,-20380.744062706475,-54533.98403727913,-7777.534888835841,9943.374093972092,0
-31136.693426173533,116698.1379209839,61031.38989397227,2576.2172088752513,-20519.034297408718,-54391.80459927348,-7784.374522231491,9708.323163290213,0
-31050.9968430398,116640.87275510268,60940.59711340648,2479.9929547305674,-20471.626250244753,-54304.9904289836,-7773.04218846811,9709.910137051947,0
-30988.054334405322,116617.49283179599,60803.24565191541,2292.6853473594992,-20332.352538845094,-54238.11401355946,-7748.455271032767,9827.547361108504,0
-30908.571535859795,116533.27146370837,60637.57453188745,2070.0172823677826,-20121.486194222343,-54189.76719318433,-7725.365920386667,10019.213558388565,0
-30811.721432907667,116368.49441340532,60444.142546900664,1823.142279573815,-19847.990265368833,-54183.59811208237,-7721.40966185389,10290.116685039799,0
-30714.960736928027,116218.380106591,60267.519072742405,1623.1165303657372,-19614.034570099982,-54219.897342914184,-7703.841191759181,10515.064627830066,0
-30617.68595085656,116080.40279629247,60106.87709491712,1481.652348140022,-19409.829044927897,-54286.77375833832,-7671.475867717019,10703.176897953565,0
-30518.332452674655,115941.03967792033,59919.390673601076,1332.2980005918741,-19184.299956816434,-54368.64819339801,-7641.680994134008,10943.994578361187,0
-30427.383209907006,115801.96713220878,59732.32893540436,1208.5587506627292,-18998.758137152083,-54455.64117763288,-7600.754952475723,11165.053317848045,0
-30348.101577049587,115711.4649243036,59666.86067979698,1262.2252859011464,-18958.770868704967,-54417.240882947495,-7580.57132843562,11139.169999311567,0
-30267.322377402925,115681.53594026185,59657.607058144036,1439.8769402430619,-19032.598676240363,-54300.7212460471,-7579.744313940067,10946.29680790286,0
-28623.35167070339,113903.65594051218,57570.468340544,2464.5255484894246,-19605.451500740735,-52466.268984453025,-7360.876045279267,8550.413462544291,0
0.0,0.0,0.0,0.0,0.0,0.0,0.0,0.0,0
-28366.37368001781,113488.49466374484,57247.99974250792,1838.8555549893113,-19017.690063577298,-52385.93681966882,-7284.63424948658,9031.870009414553,0
-28282.75580899452,113331.9654066542,57139.52673313181,1617.0368562362703,-18769.85393582904,-52456.94830757072,-7247.977390764797,9260.12601018703,0
-28207.050455036788,113183.92981195032,57039.52503439933,1457.3336516221555,-18558.875832490674,-52533.167751620276,-7210.94055240992,9437.017705262762,0
-28131.99330162962,113040.49867632978,56941.98202741039,1316.115338570794,-18339.784046398643,-52646.26757182286,-7165.991196989488,9642.609038508477,0
-28075.55515024395,112898.11807263602,56840.43805840242,1166.6715840501538,-18127.73305939037,-52772.55492046803,-7123.835809459436,9883.359663686731,0
-28024.637879409664,112790.20385683798,56765.33620150901,1143.5151781746852,-18021.09289295035,-52812.54218891515,-7091.7610580778755,9960.249660029986,0
-27980.761407659138,112748.62961462913,56731.473310677604,1284.0629389323556,-18058.286193507087,-52708.58423164989,-7088.967090187495,9797.283100919909,0
-27944.819804717292,112770.78019206406,56702.39369287453,1475.863246671155,-18159.830162515056,-52587.3260252074,-7090.352898261124,9565.607283449608,0
-27907.626504160555,112773.28358729384,56668.24022938253,1685.142617532171,-18315.174777220178,-52451.941517111154,-7090.39760174737,9292.536037715437,0
-27854.272893325862,112682.1555305812,56622.64267341153,1892.0527036221447,-18498.10144293913,-52311.55021855535,-7093.593901013965,9006.389022254289,0
-27804.830837537695,112612.79807167042,56570.94309156794,2051.75590823626,-18662.56556883845,-52174.57873669736,-7092.9009969771505,8753.210827899624,0
-27769.984470008876,112617.80486212998,56520.27168990801,2174.57873669736,-18841.223051620902,-52042.05525172086,-7093.1245144083805,8505.77703152758,0
-27723.649306514817,112548.71562413666,56470.382599257384,2325.654168465982,-19044.847431471793,-51898.713523072816,-7097.281938629266,8203.626167990336,0
-27686.38895072871,112476.49714210612,56375.25358052573,2410.2555161866853,-19186.937462504953,-51759.50686690253,-7096.164351473114,7948.682185928951,0
-27632.945932921524,112385.25732667788,56248.11686564189,2303.1459631410817,-19143.128045983794,-51684.762637899075,-7078.752343580267,7925.458724824114,0
-27560.727450890983,112266.12253583208,56118.92379039072,2114.78782384323,-18996.74648027101,-51635.92407917524,-7051.34910651142,8031.85302208978,0
-27485.15620739199,112176.64850811056,55984.74627642312,1890.6445438053931,-18786.12600482261,-51614.801681923964,-7032.730104489929,8236.59498909682,0
-27407.394493066935,112029.95401799405,55844.55614355541,1641.2437940385219,-18524.342389365578,-51635.27587862467,-7010.4007131100125,8505.240589692627,0
-27324.15660167674,111889.87564384197,55719.118161148916,1435.9877369396531,-18298.947411712852,-51699.2465674428,-6979.242383196496,8730.568512115986,0
-27246.238425149822,111756.65925482866,55603.73846314778,1289.337950309393,-18097.93818580736,-51757.4505065352,-6944.060739520832,8912.578756366893,0
-27179.451416698183,111616.15619755723,55486.950605329905,1140.7659137705514,-17883.115582651826,-51842.96827572396,-6902.531200798226,9139.694818240096,0
-27106.76354806206,111481.10696560783,55371.66031430127,1013.1374605379976,-17697.238486840633,-51928.10606527961,-6864.7567549202895,9353.779813872565,0
-25292.584317480585,109956.56162241468,53348.536989005624,1994.6919080431405,-18470.2288192647,-49917.499716132865,-6832.637300052482,7444.650378504418,0
-25215.604914164836,109857.78926955398,53196.008693934,1794.4649931469555,-18293.828862537674,-49867.65532896849,-6804.116475827484,7576.436255957857,0
-25126.399107360787,109716.77212219073,53029.15293152052,1562.476251272932,-18044.11518836708,-49860.21219850852,-6801.344859680227,7801.920640583076,0
-25037.014486611755,109580.80646877327,52864.26412250186,1348.8382905029232,-17800.10120869286,-49874.71847979537,-6799.757885918491,8030.8695453923665,0
-24953.463670817833,109460.01764893637,52715.11094064182,1193.7395449721544,-17595.471000401438,-49908.246094479924,-6781.451808300722,8210.756374046587,0
-24878.630034841895,109387.21802158463,52571.813915480016,1061.2160599956546,-17381.743632658938,-49975.301323849046,-6757.647201874685,8409.932757015988,0
-24807.216215563785,109297.52047643188,52414.07766426072,916.8461511639447,-17173.55949721095,-50076.219444049566,-6732.881470494358,8654.505530268283,0
-24738.238736286086,109179.5703279716,52292.41712644202,889.2193966638682,-17067.38871737651,-50118.777162955834,-6708.62982920586,8754.015490652055,0
-22340.723713679534,106500.60215595973,49513.782531844525,1917.8466151861319,-17295.600014662745,-47782.86354439637,-6530.86641614833,6336.897989326596,0
-22294.254439726737,106412.04454970625,49419.4581758653,1884.162538299712,-17322.42210641039,-47691.601377225,-6524.160893211419,6224.2452039864775,0
-22232.653035679643,106357.68511043102,49329.87238942816,1728.1473713008982,-17215.603126025388,-47631.162263820304,-6498.076408986832,6277.777628766157,0
-22163.00500410825,106285.55603537297,49229.89304243881,1530.043872001402,-17042.779448198045,-47582.48016729832,-6463.811186779211,6400.734567685995,0
-22093.915766114937,106162.46498599439,49117.79905067677,1301.542002054572,-16804.040479900865,-47574.59000197589,-6449.550774666713,6620.161629924871,0
-22033.878984086456,106086.75963203666,49015.89745377883,1087.457006422103,-16570.21889509075,-47591.398512804415,-6437.302019435288,6849.557569596623,0
-21976.166783342767,105972.43046596232,48927.518661470334,931.4641911664123,-16374.484680562298,-47628.99414473737,-6408.445919063444,7019.20729990049,0
-21909.78210626734,105846.43368997774,48842.31381668531,800.9523630709864,-16176.20236731782,-47697.47988566636,-6369.844458689955,7212.25930525418,0
-14471.993712901694,97280.86574559603,42382.749461099476,897.6013003350079,-13669.677893500202,-41971.902070754884,-5463.056591931378,4678.532760055826,0
-14398.165905366295,97227.5791899907,42395.020568074026,1274.6975585638022,-13927.28173299323,-41768.612967050845,-5466.811684776048,4216.678691904466,0
-14334.865768841848,97224.49464943973,42376.334510823166,1562.9009343922696,-14208.913696343523,-41562.08286059397,-5459.726182206045,3763.7653210023236,0
-14294.677334706625,97186.58609310306,42361.7164708207,1681.2087107425161,-14374.093078022783,-41453.47574075912,-5456.261662021974,3523.17115802593,0
-14265.910641307273,97141.86025511386,42337.95656788091,1815.0956520495208,-14533.975096581882,-41333.737452848996,-5455.099371379576,3245.383694492799,0
-14230.706645888486,97063.85267161446,42253.310516673955,1814.1345270952302,-14575.370524845752,-41255.43929668899,-5443.342354496857,3111.116773552702,0
-14178.560029182436,97003.30179949413,42157.71211133672,1686.0143355139694,-14480.956761894035,-41206.8466071395,-5413.614536143215,3145.5384579621827,0
-14120.512552291902,96951.42340370556,42040.23134948203,1509.2791026400985,-14323.84635948219,-41193.36850603631,-5385.18311889071,3271.3564200017704,0
-14059.604052281622,96858.90953891931,41911.530012579555,1302.2796095776325,-14107.10150641808,-41212.00985980093,-5377.628229715123,3474.869041137042,0
-13997.197985482097,96742.72517816575,41783.029841365205,1101.1362732134028,-13884.70166234384,-41253.6064537529,-5356.237611546374,3672.4808020878318,0
-13942.927953179358,96633.26869209223,41667.694846850325,952.0948500689775,-13699.293953138229,-41313.777346240124,-5321.190078329449,3833.2345386287293,0
-13872.20703793806,96583.06667703787,41565.994415640496,832.9600592231785,-13515.719086868708,-41405.75476919143,-5288.958864746026,4007.1981553553433,0
-13817.422915543491,96500.67815188636,41451.7099530524,697.7096615856684,-13325.863380781613,-41493.86534058245,-5249.172761987017,4211.426032270552,0
-13768.472598104036,96397.6813195754,41360.13486147731,643.5960914847906,-13207.913232321336,-41531.058641139185,-5217.366231522931,4310.220736874387,0
-13710.939211305333,96359.23632140376,41330.29528440805,754.8407170081566,-13232.50014975668,-41487.450390306134,-5214.549911889429,4218.846810987401,0
-13662.793556618306,96395.1555726025,41322.06984293877,923.842246761456,-13321.907122248835,-41399.76450203446,-5215.3322228987345,4046.671333710631,0
-13614.804364133142,96351.52497002632,41314.134974130095,1105.785435782995,-13453.760054931645,-41301.148611375604,-5216.98625188984,3848.143151291797,0
-13572.179589997506,96334.69410745466,41326.294322389025,1296.0881767325507,-13619.632340647719,-41189.72517190726,-5220.853103450126,3619.14954299626,0
-13533.466370908402,96353.06724030181,41330.63056055489,1450.203445565906,-13764.493987828135,-41076.96062785152,-5221.009565651987,3408.104384428524,0
-13487.891166680525,96305.10039955977,41343.59457156626,1571.2828380634094,-13914.764756844326,-40975.327251871066,-5223.468257395521,3211.476100175148,0
-13437.264468506843,96275.48433992174,41369.12026221277,1714.1328283627527,-14090.6282717364,-40853.95728671296,-5227.290405469561,2964.9140217849026,0
-13391.622209049594,96238.96159165869,41322.49452605811,1819.9683320503434,-14237.412168825398,-40746.19953311679,-5233.839466204611,2725.8621290839988,0
-13348.595103537744,96208.42911055262,41216.07787704932,1756.1541054340664,-14236.294581669246,-40675.6797835636,-5220.920158679494,2674.698989075362,0
-13281.808095086102,96143.43024155083,41105.59321079214,1604.4975283442454,-14128.760345504304,-40638.28531731876,-5195.349764546738,2752.5724621160307,0
-12279.868857852749,94687.0130113967,40343.9799156177,654.6602043306949,-12916.133577593182,-40169.90454017547,-4762.999997317791,3111.4296979564247,0
-12243.413164819072,94575.38840624025,40300.79634790399,555.440816607524,-12775.697575551127,-40260.22793413568,-4719.838781347202,3280.5876899115856,0
-12202.285957472679,94496.64321521777,40310.78757707999,617.4445520308346,-12763.605282521563,-40242.21242917851,-4701.0409653807255,3247.5071100894875,0
-12164.48915985162,94458.8240658536,40349.746665343446,774.6220096720463,-12841.210534644755,-40161.36617430247,-4693.039041342678,3085.7475451080527,0
-12124.792464065104,94466.2001410842,40394.29368938766,953.8829895188206,-12958.378372095727,-40071.04278034227,-4690.267425195421,2889.052205625308,0
-12086.638038554074,94470.51402750694,40438.34897508317,1143.6939921196695,-13118.908591205394,-39972.65040711465,-4692.413192535233,2659.0304171461116,0
-12070.85770790921,94464.59081557934,40473.06123215325,1307.5099174684235,-13277.404801690864,-39865.920833702134,-4691.273253635958,2439.8939275678354,0
-12058.184269558446,94465.8201614511,40492.73076610153,1426.398839139869,-13421.46178611885,-39761.761710748775,-4687.384050332549,2244.763210103703,0
1041.1218429280425,89793.56824121287,31334.43929758306,3836.0955617484783,-10561.220977379142,-29899.32327862521,3128.1040983262124,-7074.8184367906115,0
1066.044036510231,89721.75209055854,31243.132426925447,3680.8403540158483,-10405.45167955468,-29873.574070547467,3152.6910157615553,-6921.641941168424,0
1101.9185842227091,89675.0592991745,31140.49322250445,3502.674609582103,-10198.11691034537,-29872.56824210693,3183.4693660419803,-6711.356741866871,0
1143.962213037146,89606.77472393362,31037.87636982658,3354.3931457038607,-10011.658669212979,-29890.89667146782,3215.432358707926,-6506.4136091717255,0
1161.12835175564,89543.22871823482,30941.607412195648,3249.8093396311606,-9855.46468826918,-29928.73817257513,3251.86569999848,-6335.5792364823365,0
1177.3110137767203,89519.826443185,30838.4317659397,3138.9893972271325,-9690.464120534903,-29989.80313478727,3277.0114110118993,-6148.495146542498,0
1173.667679647665,89432.85581069326,30723.834378947875,3028.862358859918,-9548.374089501745,-30057.707730395065,3292.5011689961652,-5973.212776971624,0
1194.5218559814607,89368.59454921451,30651.258269027367,3055.9079680387954,-9513.170094082956,-30064.81558470819,3285.6615356005154,-5938.746389075898,0
1135.423847164145,86400.01484155744,26362.04817068864,3720.4699945729967,-9909.578258370057,-27260.051802399863,2258.9342152437102,-5450.9195954155675,0
0.0,0.0,0.0,0.0,0.0,0.0,0.0,0.0,0
1162.7153255173757,86228.82284097807,26149.393686616044,3243.7073137585708,-9466.49965444205,-27225.518359274767,2322.5919796581256,-4960.589406525457,0
1170.7172495554237,86128.95525270434,26077.93516385169,3089.4802862096003,-9291.686671476762,-27261.459962216613,2361.193440031614,-4755.579218600941,0
1177.802752125427,86037.5366233311,26019.08302420873,2978.213308943111,-9144.902774387763,-27295.72518442423,2388.797842788568,-4590.1763194904515,0
1178.2944904741341,85853.93940531847,25886.537187489106,2754.8523399145806,-8841.410806263137,-27417.162204811702,2394.519889028066,-4218.355072638695,0
1177.5792346941969,85834.42633357205,25859.53628179647,2769.068048540834,-8798.450755980655,-27430.908526832372,2385.959171411942,-4170.58939758476,0
1174.1370662532488,85818.10956109223,25868.119351155718,2904.4078531508358,-8856.565288100557,-27385.22156388888,2356.633684434514,-4245.870068423155,0
1177.0874963454899,85836.75091485685,25886.06780088352,3067.5532262058987,-8954.577681695084,-27327.174086998348,2318.0098723179026,-4355.840644588509,0
1167.0739154263683,85859.32617541112,25907.704288226625,3241.583898161882,-9092.197364103638,-27262.53284588652,2272.9264064387326,-4497.483640759207,0
1170.829008271039,85861.62840495279,25924.37868859641,3401.175344060382,-9235.002650916735,-27186.84984367191,2228.692306798238,-4639.640727021738,0
1162.827084232991,85889.90336000343,25933.78877245121,3524.1769864664666,-9361.334703048151,-27117.402977788628,2188.5485761492596,-4758.283779518829,0
1164.1681888203734,85898.84405725265,25934.52637997427,3626.413859511248,-9509.236187293302,-27049.5654374102,2147.175499628514,-4881.687753301129,0
1157.3509071678463,85910.31050147477,25909.67124162145,3743.0899586135124,-9667.017141998836,-26964.382944368303,2099.678045492056,-5052.812698651117,0
1129.1430073465708,85887.1540955993,25840.26907922441,3785.8935466941325,-9756.334707518501,-26900.568717752023,2059.757832274308,-5158.648202338707,0
1144.073971752761,85854.05116403408,25768.654094258192,3689.959865210048,-9710.647744575008,-26861.78844343355,2053.8346203467026,-5104.266411320354,0
1154.892215424312,85799.46820732762,25697.083812778223,3540.2702415150547,-9594.999825656405,-26832.865287832334,2065.032843651345,-4978.202580106412,0
1152.0982475339322,85703.08749098107,25614.203549277994,3363.9373400173986,-9428.948725995346,-26831.010093153123,2079.136793561983,-4795.834707965536,0
1149.5054453316598,85625.54929408725,25531.233878805273,3175.1992210864555,-9230.621709264618,-26856.84870820336,2107.232934667643,-4571.624372698329,0
1147.426733221217,85581.33754618988,25462.32345475694,3022.447408583606,-9068.90684776943,-26907.363647661427,2153.344580730473,-4379.444085326439,0
1140.2518236787214,85503.9334597548,25402.420783187197,2906.6206757200166,-8915.79740737661,-26946.523901612993,2163.671086053317,-4218.131555207464,0
1130.3947049614612,85417.9910074467,25336.10316134114,2773.784266339795,-8755.960092303758,-27015.63549134943,2168.3426003660325,-4025.7277504043427,0
1122.9739262446121,85338.68702284616,25279.933230872943,2671.905021184982,-8635.86417650367,-27083.830659617823,2166.8673853199116,-3863.9681854229084,0
1114.413208628488,85308.08748651072,25275.99932408329,2720.967097340053,-8632.042028429629,-27079.092090075737,2147.1531478853913,-3868.349127075024,0
1016.9596086120373,84885.97481763213,25130.55653158167,3352.6050062540176,-9041.905942076799,-26293.450671044033,1743.6818327714107,-4446.521666438679,0
1011.3269693450314,84855.24117083795,25165.805230486705,3476.098387008809,-9199.128103204257,-26213.029099287338,1701.2582243238821,-4614.606774723934,0
997.8041647555925,84828.46378257655,25130.869455985394,3562.286708491248,-9326.24246634498,-26137.949594137048,1658.0299531239243,-4775.986360072277,0
1006.3872341148395,84817.10909707005,25079.92983340799,3507.793158757279,-9323.068518821508,-26098.83404367173,1643.2107474333493,-4779.942618605055,0
1024.693311732609,84780.45223834827,25026.4868156008,3370.396993779957,-9227.291299539285,-26073.39775999771,1652.8443487193792,-4678.130428679611,0
1034.7068926517304,84744.55533889266,24964.125452287524,3202.177775035964,-9078.987483917921,-26051.336589535273,1673.273841933837,-4528.329046269003,0
1037.6573227439715,84688.11718750698,24889.9847203484,3011.1597783064713,-8878.693513792367,-26059.584382747675,1700.65472725956,-4313.461739627227,0
1038.998427331354,84635.61294291097,24822.437752630576,2846.0698035997034,-8695.565682385306,-26081.019704402668,1730.3825456132022,-4107.468075005298,0
822.410036469104,83249.42488964944,23835.317721087795,3164.112756497428,0.0,25930.32425226714,38313.43581160521,12320.280809419202,0
794.9620959140119,83170.36677422325,23749.82230364217,3225.267125682063,-8837.499251216605,-24913.297588425732,1350.8499473839966,-4275.620238519921,0
798.9183544467899,83112.7886839383,23678.117911703463,3102.556055936578,-8752.58497909218,-24894.432717229884,20507.813722360952,24.96689706843478,0
141362.43709101898,35248.40833237221,-82300.68280104893,-82809.2296605843,-152300.39669873693,23313.337463935462,164062.57683411698,-187500.01117587156,0
165893.65398249947,47026.01117050714,5540.706547540817,-16894.140356429834,-49883.99445319143,2872.8024883748585,-7466.510383278751,0.0,0
769.3693500381321,82776.5290603953,23368.83684210997,2498.2766806052136,-8166.030536057386,-25062.964860377604,1484.0663363973101,-3341.451486435621,0
752.6949496683449,82681.24357946179,23300.865191272806,2389.378988109767,-8023.0911387855485,-25116.273767726052,1493.1634958483871,-3160.7823467720955,0
742.4802030611158,82586.40513339073,23227.9985086917,2276.65914754028,-7890.9476334421415,-25184.51363948069,1499.0420042897467,-2959.6390104078655,0
734.1653546193453,82516.22065998439,23191.58751914427,2269.528941484031,-7849.686315637011,-25204.272580401455,1496.5833125462123,-2886.772327826758,0
729.5385437928762,82473.52883061938,23194.917928869603,2377.5772677408017,-7910.773629592277,-25157.579789017425,1473.2704444688823,-2951.838252057925,0
714.9652072766546,82470.98073190336,23208.753657862762,2518.1920837278417,-8012.541116031474,-25091.26216717137,1441.7097831791511,-3052.5552065703396,0
696.7038331451316,82488.57155374119,23229.25020630659,2671.122710175676,-8149.95963275192,-25018.171967159033,1403.3318402368927,-3182.6423515464276,0
667.288939195212,82494.7853383294,23244.672909061486,2813.7268313006657,-8299.448090758806,-24944.23240090802,1362.472853807977,-3317.5798247802154,0
667.6689188283037,82497.5122509904,23247.466876951865,2919.562334988256,-8437.268938855465,-24879.32293887871,1324.76546315941,-3431.1490315883775,0
648.3346610268749,82512.71143631407,23242.661252180413,3000.810921240504,-8588.21026016535,-24804.645765104637,1289.7402816856074,-3548.4509794980872,0
628.7098305648465,82556.40909411962,23243.75648759344,3105.6182447444344,-8754.283711569531,-24721.162004540085,1249.1942196604143,-3706.7907277816967,0
603.0053259733514,82558.06312311071,23198.449504283042,3150.232324018021,-8861.72854076198,-24648.876467280177,1216.493619471408,-3814.3920191760076,0
595.0704571646723,82534.12440622594,23115.591592525936,3053.1363518915387,-8834.280600206888,-24607.302225071322,1212.6491196542454,-3768.481538801285,0
594.1093322103817,82469.17024071039,23022.004844069772,2898.797565626953,-8737.542255970375,-24593.3100338763,1221.6345203897072,-3631.487705200178,0
607.2968606529749,82435.3297016221,22920.907909924263,2718.866033486487,-8592.77001576245,-24594.1817518581,1246.064975623189,-3438.547458562103,0
596.3892100089319,82363.24533005031,22811.205554676384,2525.9928420777824,-8415.721858484856,-24628.849305441934,1289.2038398506545,-3216.169966230986,0
594.4669601003503,82280.43212177945,22711.472076861384,2367.7872042529107,-8274.145917543525,-24680.548887285524,1315.3553793046106,-3028.72824840118,0
591.3153643200018,82203.3409597481,22622.825063635413,2250.2170354257246,-8140.348383209013,-24708.443862703076,1320.183355819187,-2875.4846975496234,0
595.6516024858715,82125.17691404682,22529.03714949114,2121.470995037019,-7994.950294193643,-24748.587593352055,1321.7479778377997,-2708.0924933011825,0
530.7197887134425,81641.9322277267,22124.850578597223,2484.5750620707904,-8220.211161387631,-24135.501631230214,1086.7193988990425,-2852.2388847016623,0
527.7693586212014,81642.55807653416,22151.47150465676,2616.7856226435674,-8352.600535905392,-24068.84873323731,1049.7719675166586,-2990.640878119521,0
522.404940271672,81628.58823708227,22171.096335118793,2719.5589375233017,-8488.007395744764,-24006.800294327753,1013.8974198041809,-3115.8329913516636,0
516.0346934816058,81607.95757817969,22177.310119706995,2931.811090219682,-8779.58588478481,-23858.094147330172,931.821819056381,-3438.5027550758573,0
510.13383329712354,81558.02378404283,22122.771866486783,2887.398176634203,-8791.320549924407,-23814.061213377787,917.4049447420207,-3455.7583007668436,0
511.9443244900897,81513.23089082426,22068.367723725303,2758.7191914748664,-8702.919405872786,-23785.02629906096,926.3679937343593,-3368.3853368988835,0
510.8937925633069,81396.28657080451,21919.549818012107,2404.131138570973,-8382.50716820402,-23810.753155395574,968.0763464019506,-3004.789531516405,0
524.2154314646382,81356.70163373361,21850.639393963775,2234.280242578998,-8213.840914597566,-23854.584923659855,1013.96447503355,-2810.977566896532,0
529.848070731644,81327.53260895805,21795.385884963624,2107.165879438274,-8072.823767234312,-23898.617857612244,1040.0713110012598,-2654.7612342096113,0
512.0113797194588,81249.16739756867,21734.23151577899,1985.818266023294,-7920.697803538907,-23952.843186428738,1042.6417614604093,-2482.7869226209473,0
507.25045843425147,81170.55631700494,21667.042175951134,1855.239382698499,-7781.066464249281,-24026.425124789785,1047.7603106355853,-2294.0041002037588,0
505.23880155317795,81115.21340103229,21631.7934770461,1831.0995001256167,-7728.204591763293,-24051.54848406008,1049.7719675166586,-2240.002288818496,0
496.2757525608392,81115.6157324085,21635.90619778074,1934.5880707852884,-7779.099510854454,-24014.533997448325,1027.7778522835881,-2320.6697297495443,0
486.46333732982504,81135.57583901739,21655.84395264649,2074.04059612993,-7869.825236190869,-23952.619668997508,993.8926097090607,-2439.759817109097,0
477.29912264937894,81160.83330874641,21685.77293668824,2228.78171377073,-7995.509087771718,-23881.63053283873,953.3465476838677,-2588.8235919966455,0
467.59846613397997,81161.77208195759,21712.013883114687,2378.940724071307,-8135.699220639422,-23812.228370441695,909.1347997864962,-2743.654116609938,0
452.6451499846667,81132.22307754893,21733.315094310943,2499.550729963227,-8263.193563413237,-23750.716373367093,868.3875720731957,-2875.127069659655,0
444.3079497997731,81115.68278763788,21752.895221286726,2600.2006292462725,-8400.16504527122,-23677.894394272233,830.7695883971207,-3009.908080691581,0
437.401261174754,81112.5982470869,21759.109005874932,2714.5297953206177,-8553.743872269624,-23599.730348570964,787.51896545404,-3182.687055032674,0
416.25651218035887,81053.52259001271,21710.49396458232,2768.4869032196348,-8654.818454672006,-23538.263054982606,750.3703683835488,-3309.1755693659525,0
410.2662450233844,81012.84241752878,21647.260883287243,2684.354942104515,-8624.129511364074,-23503.841370573125,745.2071157221267,-3277.301983672499,0
410.4450589683687,80977.66077385312,21577.992831348944,2538.7333356579147,-8518.539876850835,-23483.367173872422,756.7182634304919,-3162.3693205338313,0
412.36730887695006,80940.64628724135,21503.427416290488,2369.687102418369,-8364.804587650573,-23479.187397908412,776.6783700393659,-2992.4960727987336,0
420.1680672268908,80858.07894814486,21423.341120680638,2186.6933814700474,-8171.998451471237,-23508.848161032685,804.8639181175183,-2769.179807256449,0
458.30014099479564,80224.47408583606,20861.39594682431,2029.650034287574,-7649.258235052718,-23197.46602758563,648.96050983432,-2316.489953785536,0
447.4148420938755,80218.48381867909,20895.571762059433,2194.8070642237108,-7790.923582966541,-23122.855909040925,612.504816800643,-2488.330154915461,0
441.4692784231471,80209.63252840236,20926.953609404183,2333.209057641569,-7922.351832530011,-23057.767633066633,577.0996556937489,-2640.1878976933895,0
411.8308670419971,80150.80274050252,20947.02547472867,2538.5768734560534,-8207.24715037627,-22919.723267538742,511.8772692607206,-2943.5010518730314,0
405.14769584820846,80118.6609338916,20911.687368851144,2629.637874939315,-8340.262373701475,-22840.642800369427,476.04742503448875,-3123.5219909859893,0
400.2973675905089,80070.96231406702,20855.115107006735,2595.2385422729576,-8352.488777189777,-22792.228924764924,465.5644575097834,-3161.9669891576164,0
400.8561611685849,80025.61062727038,20790.473865894906,2468.6159174809404,-8267.70861552409,-22769.9889403575,476.6062186125647,-3084.9652340987464,0
407.5616841054967,79994.29583515499,20723.753912672633,2309.3820994724097,-8134.559281740147,-22764.08808017302,496.29810430396225,-2943.277534441801,0
422.20207585108733,79835.39729329331,20580.523942740198,1966.8416361118339,-7775.746749385998,-22799.493241279913,561.1181593607758,-2560.9509683222154,0
0.0,0.0,0.0,0.0,0.0,0.0,0.0,0.0,0
425.3760233745589,79784.03298759657,20531.05953520891,1849.8973160920928,-7633.656718352837,-22833.780815230657,602.6700498265058,-2411.082530682238,0
421.8444479611187,79753.56756171986,20485.864310614128,1742.0725072665518,-7486.291675942641,-22893.504672855415,620.9537757011518,-2247.043087902253,0
429.0193575036143,79727.3042635503,20437.942173358333,1624.4799866962426,-7347.8226272954125,-22963.59973928927,634.5883390062057,-2071.0901660376885,0
419.5198666763226,79684.25480629531,20422.161842713467,1609.3478566019448,-7284.366028569104,-22973.345099290917,642.3443938699004,-2019.7035085978216,0
414.3119105286545,79660.09257197932,20450.5262047366,1725.8451417592253,-7328.1307416040145,-22931.212063503983,625.2676621238984,-2101.4214814556526,0
434.5178863118819,79681.79611455179,20492.41337134918,1873.947791692483,-7418.141211160493,-22883.31227799131,600.3901720279558,-2212.733162208388,0
438.1835721840604,79668.56388262294,20536.960395393395,2032.0640225448624,-7541.656943658409,-22818.44751944825,573.7692459684162,-2358.846507003695,0
418.29052080455546,79697.57644519665,20584.323739071115,2187.185119818754,-7681.668262581125,-22755.281493382543,541.5156806418705,-2516.247482076137,0
414.8930558498535,79737.0049200657,20633.184649538078,2314.657110849447,-7805.854547372732,-22691.35550805065,513.821870912425,-2654.627123750873,0
413.84252392307064,79755.37805291283,20677.32934220608,2422.012533069404,-7939.160343358537,-22622.601546204183,487.67033145846915,-2790.860998085797,0
407.740498050481,79763.62584612523,20702.430349733255,2545.617672539811,-8088.447635677317,-22544.39279701667,455.21560044381624,-2968.0432658221284,0
387.9368536434682,79718.49767675981,20668.835679819327,2613.0975850282657,-8191.556226703896,-22482.18789590525,426.85123842067946,-3104.858285478251,0
389.0097373133741,79664.62997583329,20612.911618525482,2541.147323915203,-8164.845893671864,-22450.895455532995,429.51109585232115,-3086.015766025529,0
393.7036033692124,79643.01584023332,20556.5628741123,2409.2720394892717,-8061.11145383784,-22434.489276080683,448.241856589428,-2982.3260296777503,0
269.740836008837,78585.64428005482,19593.56037339928,1612.3653419235552,-7008.746684118908,-22501.946836826017,0.0,125761.52388820195,0
-81298.78826730182,143863.46303602832,122004.77701454025,127120.97925668831,-122154.31017603338,174945.84172641285,0.0,640.8691788237797,0
98587.43688985328,-6938.830431630041,-176511.84955309925,-121955.29025526585,-174338.29899658554,170288.54312232396,28196.299266594604,154541.0248363629,0
220.65640811064293,78594.71908776277,19720.65238479688,2169.303725320323,-7468.209115756102,-22262.716130180128,384.22646428504373,-2267.8525607498027,0
200.53983929990764,78604.3526890488,19741.19363672695,2260.521189005446,-7598.050391557836,-22196.264397875333,351.4588088666683,-2387.5908486599237,0
189.81100260084884,78624.6257200614,19762.718365354438,2357.9747890218964,-7749.438747730181,-22117.966241715327,315.1819297779757,-2540.789696025234,0
171.7060906711871,78606.52080813174,19694.702011031033,2407.64036224129,-7907.800847756913,-21996.819793988456,259.39197894286986,-2741.2624800957724,0
167.19103856033317,78553.63658390263,19642.018952490027,2282.4706007522705,-7831.067313615519,-21973.52927765425,267.08097857719537,-2660.0585973297716,0
157.2221611274577,78460.20629764833,19575.120185322772,2125.15903265232,-7705.986959098993,-21963.13571710203,283.6436202313674,-2529.4573622618536,0
173.51658186415327,78380.54468515782,19499.817162741252,1943.1934918876584,-7528.558822188307,-21979.944227930562,309.8398631715693,-2331.2421042467417,0
175.5952939745959,78335.05888790243,19429.811503279896,1777.2541509422153,-7359.691402893746,-22014.88000243187,348.1731026275815,-2136.04433155324,0
177.56224736942335,78271.80345486423,19369.148872443966,1652.1067411963188,-7229.090167825829,-22070.289973633884,368.3567266676859,-1974.5306357461593,0
184.62539819630373,78199.09323448499,19307.212192250026,1539.3421971405862,-7088.005965233205,-22116.93806153167,386.28282465236333,-1826.9867793909775,0
164.37471892683024,78112.83785777318,19235.865428201283,1415.7594094133024,-6952.107367045126,-22178.15948594567,398.2410072231893,-1654.2078050498847,0
159.52439066913072,78074.88459795025,19197.241616084673,1383.483492343634,-6895.8703813475595,-22212.178838978936,399.53740832432555,-1581.1399567806695,0
159.2785214947773,78082.01480400651,19203.343641957264,1483.6193015348495,-6943.591352915248,-22171.72218392624,381.56660685340205,-1657.918194408309,0
141.17360956511556,78070.32484235316,19218.587530767174,1620.143748530373,-7035.501720637186,-22115.4181429993,354.5657011607707,-1773.7896307581443,0
124.90154057154301,78111.38499447018,19244.04616618432,1767.888770573662,-7161.878476254849,-22047.133567758417,323.0050398710394,-1919.2324232597603,0
107.24366350434205,78135.68133924493,19275.584475730924,1917.0643041768255,-7304.750818297316,-21973.32811196614,289.5221286727267,-2076.901619249679,0
96.55953029152931,78139.7270047502,19298.226791514564,2036.0202810776402,-7434.457983640312,-21911.458487001564,257.58148774990366,-2211.57087156599,0
79.39339157303522,78112.81550603005,19317.963380692207,2129.7634917356663,-7576.816235590949,-21845.409086072985,228.01013159812283,-2340.406318927188,0
65.40120037801267,78093.21302731115,19354.37437023964,2250.507608086324,-7733.837231030299,-21761.299476700988,195.64480755596207,-2509.2960899648724,0
52.03485799043524,78068.49199941706,19341.924449320104,2323.5978080986624,-7847.451141324707,-21692.90314274449,165.87228571607386,-2645.0382259510893,0
37.863852850428394,78012.74675206821,19287.229733898028,2249.6582418476487,-7830.866147927412,-21656.760374114536,165.24643690862877,-2627.1791831957808,0
-217.86244022026304,75645.3618791915,17248.12491226941,903.3009948313829,-6782.681154172489,-20592.996215402854,20.116568810735274,-1099.6610581672821,0
0.0,0.0,0.0,0.0,0.0,0.0,0.0,0.0,0
-217.43775710092527,75561.25226981951,17159.097919410346,1038.7525581570005,-6772.734628482737,-20587.81061099831,-4.917383487068623,-2929.687674622993,0
-185138.37070097748,117723.85941290017,-164025.36118181713,58378.72972361623,-117829.18082649594,58592.63590530371,-23475.544063779358,93750.07264316516,0
-258.14028132797966,75611.14136047014,17181.024979414047,1475.349156579325,-7148.288616436042,-20401.397073352164,-103.64503286153274,-1502.8865041069093,0
-267.1703855496875,75606.62630835928,17185.495328038654,1577.0048843029074,-7271.737293704587,-20338.99100655264,-134.71395580255722,-1621.9765914664622,0
-282.88366096518405,75586.06270468609,17189.13866216771,1679.9346613845028,-7420.264626757182,-20274.59563461516,-168.59919837708463,-1763.5748841509155,0
-314.48902574116147,75567.46605440772,17176.1299476701,1783.1997146129438,-7559.515986413717,-20206.75809423674,-205.36781581448412,-1923.5686614256301,0
-314.35491528242324,75536.10655880609,17122.195191514205,1766.2570933256802,-7591.5236825659085,-20156.645486154885,-219.76233838572136,-1967.065153543064,0
-304.78836922576244,75489.90550577077,17068.282787101434,1654.990116059191,-7518.053502920479,-20129.77869092099,-209.68170223723067,-1891.560965273438,0
-313.70671473185513,75426.49361053071,17005.340278466956,1506.5074864928417,-7395.074212257517,-20115.58533403786,-192.2473426012601,-1761.4961720404729,0
-318.82526390703106,75377.23036868752,16940.65433386888,1334.1978987573325,-7226.45266213731,-20140.172251473206,-162.8771521375866,-1570.3440648522417,0
-329.84467326668937,75289.96916353518,16879.276447253014,1171.924243684068,-7065.073076788966,-20196.006905794555,-121.30290992873371,-1365.0209525240034,0
-335.25379510246484,75210.0393301272,16832.360138437754,1050.6660372415802,-6933.980103372342,-20248.064115528116,-103.42151543030235,-1204.0884020381213,0
-348.5530822606732,75130.84710424228,16789.914178247105,946.5516177744638,-6796.025144816944,-20303.295272785144,-94.79374258480922,-1039.1101860469691,0
-361.24887235455947,75046.49162569591,16740.203901541467,828.8696902316624,-6658.494869380883,-20367.60123775013,-89.09404808843422,-853.8142355569742,0
-421.6432822730114,74164.24597288645,16201.169264386253,690.8476764468954,-6337.81441079464,-19854.852250507607,-239.2977618752576,-702.7388037883522,0
0.0,0.0,0.0,0.0,0.0,0.0,0.0,0.0,0
-420.4586398874903,74201.10399729633,16298.51110568709,1114.7037812890876,-6648.347178003023,-19701.29577525233,-319.42876097135314,-1111.3733715637547,0
-431.0310143846878,74198.71236078217,16335.413833583227,1253.6198647987762,-6775.349782428133,-19640.163757810817,-349.9388903343016,-1261.2865126899787,0
5.006790459560779,2.8386713766259777,-56238.57267132835,125498.89090650623,-155442.24711908383,173998.77601854657,-132937.59572133992,118566.49777689563,0
-447.10191769015296,74205.08260757223,16384.69942716953,0.06705522936911758,-1879.9604105925805,-78259.53234788968,65485.51115307279,6280.37043096843,0
-77806.52957001505,-1771.4426977302253,-6876.2008473992855,0.0,10253.906861180476,5851.976922272261,-63294.325071235005,70567.53757998571,0
-129019.06693095369,-17881.37214668823,169914.73257033425,175753.49961242077,52734.37814321388,0.0,0.0,82031.25488944381,0
-131359.83087777084,2033.025147499153,140806.30337037463,139731.51980230332,-49297.14943749603,187444.42239072456,46660.8954465923,-140625.00838190367,0
-425.19720942957457,74098.08481324224,16201.5045405331,1304.6265426055515,-7026.739837332954,-19360.230526937874,-422.6491107135481,-1597.9037641229488,0
-425.9571686957579,74024.7934475418,16128.660209695116,1135.490902393514,-6858.677080790822,-19373.619221068573,-396.83284740643785,-1420.5650341847559,0
-415.87653254726723,73957.4699972552,16061.537925096625,975.0277385132157,-6690.480213789952,-19408.3761816249,-355.325660426954,-1225.7025376381002,0
-407.0699457567898,73930.96082991129,16011.648834446001,855.8258924380476,-6554.559263858751,-19454.10784805464,-322.222728861733,-1063.60769650982,0
-419.1175353001079,73863.72678659718,15964.486656456389,756.4053390267694,-6416.269029156508,-19499.258369163177,-305.81654940942224,-909.8277038233103,0
-419.8104393369222,73786.5238658502,15910.261327639897,641.1821032275024,-6282.985584913826,-19563.385520183176,-296.18294812339235,-738.546296271461,0
-427.9911773199545,73719.40158125172,15879.438273873226,600.0101923948641,-6212.488187103759,-19602.054035786034,-293.16546280178204,-641.584434603717,0
-416.90471273092703,73699.86615776218,15895.06214231623,696.0109291083174,-6248.698010963083,-19577.265952662583,-308.0964272079722,-695.0051006677807,0
-402.644300618428,73722.82139794955,15925.572271679179,834.4129225261761,-6333.053489509433,-19529.14264971868,-333.4209521663756,-805.1321390349948,0
-403.87364649019514,73736.92534786017,15958.0940579232,982.6049794319259,-6449.930754299805,-19470.201103103227,-363.2381774925099,-942.2153796085942,0
-412.38966062007313,73774.677441995,15992.538094075804,1130.6405741358146,-6588.08687854331,-19402.18474877982,-395.20117015845597,-1097.9176222036851,0
-434.3614241100206,73768.75423006738,16021.058918300801,1252.6587398444856,-6713.1448813167135,-19342.796167301905,-425.0407472277133,-1231.9610257125512,0
-440.6646156707177,73753.91267263368,16046.517553717942,1352.772197292578,-6843.790819870878,-19279.764251694935,-451.661673287253,-1360.796473073749,0
-452.98042613151233,73740.6357372186,16062.83432619776,1464.508561164651,-6993.055760446535,-19211.502028197174,-483.84818338442943,-1526.2664274136082,0
-481.16597420966474,73719.15571207737,16029.262008026957,1542.0691098015968,-7115.565664503912,-19146.212586534773,-514.4477197198701,-1682.6168705592675,0
-457.942513104827,0.692904036814215,-14493.809014189781,86839.22659392515,110147.95959877726,28293.35053523484,166852.6778729366,146264.7778549658,0
-31547.78668569247,0.0,0.0,0.0,0.0,0.0,0.0,0.0,0
0.022351743123039194,-93750.00558793578,-443.3244731023594,72885.16747267052,15068.91936474558,674.7544213983072,-6244.18295885223,-18962.280092375284,0
-422.49264851168687,72840.64280036943,15030.273200885844,590.6448120263107,-6145.209440303412,-19020.08170009146,-628.7321823079695,-539.7722446782735,0
-405.4159167656849,72847.03539890262,15039.146842905691,645.4065826777567,-6151.914963240323,-19014.4937643107,-645.9877279989557,-554.926726515694,0
-417.08352667591134,72841.62627706685,15068.628792084979,774.0855678370933,-6225.765122518846,-18968.113897330397,-674.8885318570453,-656.8506751567528,0
-426.7394797050643,72894.59990826846,15106.894976311623,916.9355581364368,-6330.840666940252,-18908.770019338728,-708.3937947984812,-788.4130351789615,0
-428.30410172367704,72916.21404386843,15146.569320355016,1068.1003968775508,-6467.70039008262,-18846.475711254818,-746.3247028782786,-944.0705742878064,0
-430.53927603598095,72924.08185744775,15188.635300912576,1204.9154165336738,-6601.296758729026,-18789.411711061697,-783.1603755450473,-1088.8875179819775,0
-442.0504237443461,72926.98758405373,15217.022014678836,1311.175603340602,-6726.153595814323,-18730.58192316186,-815.6151065597002,-1217.8347240587905,0
-445.0679090659564,72910.42494239956,15236.892714315218,1413.2783659266452,-6873.540989967643,-18666.186551224382,-851.8919856483927,-1369.5136528917344,0
-452.8910191590202,72903.16062588457,15222.945226606442,1518.5327242930368,-7015.027523936482,-18591.777598367786,-905.3797069418256,-1552.4626703538102,0
-455.41676613192357,72885.5251005605,15161.5896917337,1513.1459542003843,-7057.585242842749,-18544.95069652502,-968.925712640626,-1619.1379200898361,0
-450.0746995255172,72821.71087394422,15091.405218327356,1406.997526109071,-6994.866251639501,-18527.829261292773,-1001.447498884648,-1551.8591732894881,0
-420.43628814436727,72797.19101173825,15019.991399049246,1262.8287829654685,-6880.894713455124,-18513.814718354624,-1010.7458240238324,-1433.216120792396,0
-414.3342622717775,72771.48650714675,14938.988681971354,1096.9117937631484,-6714.8659655371885,-18508.070320372004,-1002.609789527046,-1271.0765761778698,0
-341.42287620442363,71841.58693799895,14042.68378273748,630.6320804734279,-6046.146514782102,-18039.398970568116,-1315.668303708333,-667.3559944245812,0
-345.35678299407857,71772.67651395062,14002.67416254724,544.4437589909887,-5939.908679718296,-18087.097590392685,-1315.4447862771026,-525.1318529326828,0
-346.83199804019915,71736.89137321063,14007.189214658094,593.8858147791514,-5936.712380451701,-18078.492169290315,-1331.0686547201071,-530.2280503647357,0
-376.22454024699573,71799.52095744137,14075.92082476144,866.2865082196299,-6109.558410022164,-17971.4720232172,-1374.453388121926,-756.6065047148767,0
-378.81734244926827,71809.80275927798,14115.751631006697,1019.9547421905245,-6245.65817389835,-17912.530476601747,-1405.3434971179663,-909.2689102452345,0
-384.4946852025202,71808.17108202999,14156.342396518136,1159.2061018470586,-6378.539286764818,-17859.15451402393,-1436.9041584076977,-1051.671865682117,0
-410.9591490601986,71781.34899028235,14216.915620381571,1376.8897281223374,-6646.536686810057,-17730.564935837087,-1490.5483419029915,-1321.5468121496924,0
-419.2739975019692,71771.13424367513,14213.115824050654,1483.395784103619,-6790.7277816967835,-17660.93925600882,-1522.3995758533224,-1492.582350527188,0
-434.7637554862353,71746.5696779829,14165.506611198582,1487.1508769482896,-6841.265072897975,-17615.833438386526,-1538.78340356251,-1560.9339809974422,0
-441.13400227630154,71694.40070953373,14111.504799813318,1388.3114688582104,-6781.049476924508,-17596.320366640113,-1531.2061626437999,-1502.8194488775403,0
-416.5694365840814,71658.32499613315,14057.61474714367,1251.5858561745797,-6671.078900759155,-17580.584739481492,-1511.1342973193107,-1394.1676255564466,0
-402.80076282028926,71608.07827759255,13996.013343096576,1091.525023670496,-6508.872300915259,-17578.66248957291,-1484.6921852047553,-1236.5878365390204,0
-386.81926648731627,71531.03181904744,13934.031959416388,935.9568915341432,-6346.933921988841,-17613.106525725514,-1445.9566143725285,-1051.4706999940097,0
-373.63173804472314,71461.96493279724,13883.628778673932,818.6772953675566,-6214.946878847293,-17649.495163529824,-1414.5971187709044,-892.6839168479393,0
-368.8708167595158,71427.72206233274,13840.624024905206,723.5706283790248,-6085.1279547886825,-17698.60194317114,-1404.8964622555054,-738.3004270971076,0
-371.75419162238785,71381.72217498554,13788.857387832248,612.2365958831665,-5952.090379720353,-17754.95068758432,-1396.5369103274888,-561.2746215626371,0
-366.27801455724324,71319.6960878191,13754.100427275922,563.3309819299567,-5873.032264294163,-17785.863148323486,-1398.839139869162,-457.07079512302846,0
-365.6968692360442,71290.43765607104,13763.555214616967,651.5086085503464,-5900.636667051116,-17757.78935896095,-1416.117037303271,-507.0269410030211,0
-362.3664595107114,71319.0255355254,13791.114913887674,787.8765933440086,-5981.9299567896105,-17712.616486109284,-1439.7875332705698,-614.203549277994,0
-369.7872382275604,71349.69212709022,13821.043897929423,935.1969322679599,-6095.946198460233,-17663.107375091753,-1468.6212818992901,-747.5316970069227,0
-350.4082769398854,71380.98456746248,13853.006890595369,1083.567803118694,-6234.571709309323,-17602.645909943934,-1499.9807775009142,-902.5857390514457,0
-349.89418684805554,71391.33342452843,13878.17495335191,1204.3789746987209,-6357.483944742915,-17541.178616355573,-1527.0263866797916,-1038.2384680651705,0
-374.8834356596134,71391.55694195967,13903.83475445716,1303.0172171006927,-6484.620659626762,-17486.819177080342,-1552.8873534731479,-1163.1176568935905,0
-384.65114740438145,71397.97189223599,13930.120404369856,1415.7370576701794,-6631.561018917621,-17420.836831381133,-1580.7152736613318,-1324.8101666456562,0
-428.84054355863,70926.23835362424,13589.993929266568,1367.636106469399,-6608.717537445875,-17102.033919217225,-1685.3661349634012,-1523.5171630094744,0
-417.7987824558486,70905.49593600606,13558.366212747467,1239.4712114018923,-6507.5535480710005,-17086.72297517794,-1670.5916327590724,-1434.2890044623018,0
-405.9300068575148,70865.30750187083,13520.658822098902,1092.2849829366794,-6359.003863275281,-17077.67051921311,-1647.636392571711,-1301.3631881095878,0
-388.74151639589763,70796.53118828125,13469.920365209602,927.6867465786187,-6181.508671135227,-17104.939645823222,-1613.5276325659531,-1119.7999787211404,0
-375.6433949257967,70725.58675560872,13426.937963183997,795.0515028865041,-6035.2388641380585,-17156.616875923686,-1583.4645380654656,-955.1123353905878,0
-357.3820207942736,70664.43238642409,13393.298589783823,699.0060626868047,-5903.117710537774,-17202.728521986515,-1569.3605881548278,-816.7997489452213,0
-359.7513055653158,70617.31491192072,13354.630074180965,591.4941782649861,-5760.7594585871375,-17265.291050987904,-1560.9116292543192,-650.6592423116709,0
-362.0758868501119,70593.86793338465,13322.108287936942,502.31072320405974,-5653.180518935949,-17334.40264072434,-1549.4228332890768,-510.4691094439691,0
-407.89696025234224,67628.12689710419,11815.801967132209,979.3863284222083,-6160.743901773923,-14700.652045050385,-2150.885888986939,-1432.1655888656132,0
-400.94556814107705,67586.79852406969,11765.599952077862,835.508157939205,-6022.096039181712,-14701.590818261553,-2131.708093387371,-1290.1873165480683,0
-398.2410072231893,67507.80746387287,11707.99951004979,675.2014562607679,-5854.077986125826,-14748.104795700598,-2093.039577784513,-1093.2237561478469,0
-406.06411731625303,67430.71630184152,11660.099724537118,543.3708753210828,-5711.853844633927,-14801.681923966522,-2054.8851522734853,-918.2990144669423,0
-414.80364887736135,67360.95651155451,11624.381639026502,450.90171402106967,-5584.471260575728,-14845.290174799571,-2044.2233708037957,-783.1156720588012,0
-436.1272118167408,67294.95181411217,11585.601364708029,353.6716314358491,-5448.170331011434,-14906.824523617299,-2036.5567229125932,-625.3347173532675,0
-447.7501182407211,67262.76530401499,11552.52078488593,263.3929409618938,-5334.489365487657,-14980.428813721468,-2029.3371098838516,-473.0969949422476,0
-469.341902097577,67218.93353575072,11557.393464886753,294.2159947285649,-5313.724596126353,-15003.853440514413,-2037.56255135313,-450.49938264485496,0
-481.8365265033559,66673.17102391546,11501.11177570294,1149.796017992259,-5755.886778586315,-14271.722094519262,-2103.0308069605117,-1444.7496202438845,0
0.0,0.0,0.0,0.0,0.0,0.0,0.0,0.0,0
-490.3301888901108,66640.96216207517,11482.962160287034,1213.8337620397665,-5861.007026493968,-14218.5920011158,-2117.000646412411,-1594.2604299938935,0
-485.90454375174903,66576.5667901377,11439.93505477518,1151.293584781503,-5846.5678004364845,-14195.010912120993,-2107.367045126381,-1597.948467609195,0
-476.11448026385784,66541.00516682894,11391.297661739447,1023.8886489801794,-5760.200665009062,-14180.79520349474,-2081.10374695681,-1522.1984101652151,0
-453.00277787463534,66501.44258150116,11331.171472738473,871.0474295048374,-5629.979409574235,-14182.56099120146,-2050.191286217647,-1394.882881336384,0
-453.4945162233422,66449.11715085013,11260.7634819009,699.9001324117263,-5461.111990279674,-14215.507460564819,-2010.5839974036214,-1209.3634134151587,0
-456.5567050311986,66416.28244020238,11197.37393840396,555.1055404606783,-5317.01030236544,-14254.354790112662,-1964.5394065701607,-1048.877897791737,0
-547.1036164226304,65568.23495437116,10716.16326070805,877.4400280380266,-5744.755610511042,-13618.380643032828,-2081.3496161311637,-1362.2493363767467,0
0.0,0.0,0.0,0.0,0.0,0.0,0.0,1281.7383576475595,0
-562.861595324373,65451.223579122045,10611.981786011564,779.9417245353296,-5780.0937163885665,-13510.309965032933,-2085.037653746465,-1428.9916413421415,0
-556.089017158092,65417.986537098084,10565.244291141289,637.4717138690778,-5658.522585542356,-13508.410066867475,-2064.0493669539314,-1298.2115923292392,0
-554.926726515694,65377.86515819223,10513.678819756438,476.11448026385784,-5498.9758431301025,-13535.5003795326,-2029.5382755719588,-1111.1945576187704,0
-541.2921632106402,65278.93634312966,10434.978332220217,241.66704664629978,-5252.5255234554725,-13625.332035144093,-1972.720144553193,-806.0262087599164,0
0.0,0.0,0.0,0.0,0.0,0.0,0.0,0.0,0
-556.089017158092,65209.55653247575,10395.751023039282,142.87234204246653,-5127.623982883929,-13671.689550381276,-1964.3829443682994,-650.5251318529326,0
-561.9228221132053,65144.177683840855,10354.914388353489,44.79289321857054,-5017.720461947946,-13724.506719381017,-1959.8455405143225,-493.325322468598,0
0.0,0.0,0.0,0.0,0.0,0.0,0.0,0.0,0
-557.0054386261367,65134.521730811706,10381.17768652306,174.25418938721356,-5057.014826358249,-13702.02086579924,-1977.5257693246465,-547.2377268813685,0
-571.3329059680049,65135.37109705038,10415.66642616191,310.3092497771531,-5152.501472979871,-13657.987931846854,-1995.3624603368316,-660.1810848820857,0
-579.5583474372833,65169.9268919186,10456.167784700858,455.2603039300623,-5278.073565845107,-13599.180495690138,-2015.3672704319522,-800.9970665572325,0
-587.2920505578547,65207.07548898909,10498.300820487788,592.9693933111067,-5407.937193389964,-13540.820094395882,-2036.6237781419622,-940.8966267643349,0
-591.0247916594024,65246.325149913144,10539.696248751656,706.7844692936224,-5529.307158548067,-13486.81828301062,-2055.734518512161,-1061.8419088030998,0
-605.3299072581475,65219.7936308261,10565.713677746873,804.6404006862879,-5666.4798060941575,-13433.06234079971,-2076.7228053046947,-1188.7998097419625,0
-626.8993393718803,65198.55947485921,10573.000346004985,919.9753952011702,-5812.548447403219,-13374.277256386116,-2103.67900751108,-1351.9004793107795,0
-627.7710573536789,65169.65867100112,10529.280336456319,957.0122335560461,-5892.344170352469,-13323.49409601057,-2120.9345532020657,-1450.225797309029,0
-615.6117090947455,65145.85406457508,10483.280449109103,877.5294350105188,-5855.106166309486,-13297.29785307037,-2114.9442860450913,-1410.0373631738044,0
-603.921747441396,65109.823054660745,10434.888925247724,755.0642344393871,-5763.262853816918,-13282.210426462318,-2097.3981676935055,-1307.4205104959315,0
-596.500968724547,65071.02042859915,10379.613064504449,610.4484564333234,-5626.581944619533,-13284.400897288375,-2078.5332964976606,-1157.2615001953543,0
-588.4319894571298,64997.32673152249,10319.419820274104,456.48964980182944,-5469.851521840782,-13319.828410138392,-2051.3982803462914,-964.1200878691726,0
-562.5710226637734,64933.780725823686,10270.245985403417,335.901995653033,-5348.526260168926,-13373.964331982394,-2019.256473735361,-795.2079650883654,0
-561.0734558745298,64886.3503269166,10231.264545396838,247.41144462892083,-5231.783105837291,-13413.88454520014,-2006.6724423570895,-663.220921946819,0
-537.5370703659696,64574.789379524555,10042.302909034664,470.8618206299437,-5191.348802527714,-13160.192260753647,-2044.491591721272,-669.8146861681155,0
-547.1706716519994,64538.49014869274,10124.490268498079,752.9631705858213,-5442.91767137752,-13060.9952247736,-2100.5944669601004,-953.4359546563599,0
-556.089017158092,64552.48233988776,10179.72142575511,963.3154251167432,-5704.9248042657855,-12941.905137414047,-2149.947115775771,-1243.6062838796545,0
-559.1065024797024,64553.80109273202,10151.11119455762,1039.5125174231837,-5814.828325201769,-12883.768253551021,-2175.2492889910513,-1396.8051312449652,0
-550.4340261479632,64540.121825940725,10106.430060054663,989.3999093413298,-5811.073232357099,-12859.78483318,-2179.2055475238294,-1407.533967944024,0
-539.1463958708284,64534.35507621498,10065.906349772595,872.3661823490967,-5730.808122802265,-12847.223153544852,-2164.855728438838,-1333.437939491149,0
-530.943306144673,64473.46892794782,10012.99977380036,729.3597298478919,-5606.621838010659,-12842.752804920245,-2142.0569504533382,-1216.426564242039,0
-509.2174118290789,64423.19985766409,9957.276878194622,565.8120254166142,-5439.117875046603,-12856.946161803375,-2112.6197047602955,-1046.7768339381714,0
-501.7742813691068,64396.55657986143,9911.9475431411,425.1301542002055,-5290.143507131547,-12885.176413367772,-2068.1397359454477,-882.782094644433,0
-500.47788026797053,64341.3254226044,9876.520030291082,323.4297229903771,-5167.588899587923,-12920.805091905897,-2041.004719794078,-752.0020456315307,0
-488.36323549528333,64283.07678002576,9840.198447716144,220.79051856938116,-5036.674740116283,-12970.31420292343,-2027.1019355715478,-601.1948347803852,0
-498.2427059556666,64214.68044606926,9801.820504773885,117.23489268034058,-4923.887844317427,-13027.624072290902,-2004.1466953841862,-453.4721644802192,0
-498.466223386897,64197.067272488304,9802.289891379469,121.95111047930185,-4895.232909633691,-13041.772725687786,-1994.7589632725096,-430.6510347515961,0
-504.79176669071717,64213.60756239935,9835.90691303652,229.32888444238213,-4947.267767624126,-13008.870959810673,-2002.0009280443744,-521.868498436719,0
-498.98031347872694,64211.37238808705,9874.8883530431,359.03604978537857,-5034.260751858995,-12968.101380354248,-2017.580093001133,-642.5902630442538,0
-505.64113292939265,64245.45879634969,9925.246830299307,501.5731156809995,-5153.239080502932,-12917.944068786148,-2038.0542897018368,-790.2235263719276,0
-418.2011138320633,62574.688349645636,9207.286489444166,297.7252183988821,-4635.662116745836,-12009.859800926435,-1940.3995239972785,-775.1808032501223,0
0.0,0.0,0.0,0.0,0.0,0.0,0.0,0.0,0
-421.91150319048785,62611.836946716125,9237.550749632761,442.63156906554514,-4745.34212025059,-11965.75981174468,-1955.7998750090524,-909.2242067589883,0
-434.45083108251276,62655.892232411636,9269.670204500568,590.0189632188656,-4878.357343575796,-11911.556834671308,-1972.5189788650857,-1064.5911732072336,0
-440.06111860639567,62672.566632781425,9295.978206156386,714.4511171848247,-4998.788535522731,-11861.26541264447,-1986.935853179446,-1201.9873381845557,0
-435.41195603680353,62687.45289370137,9314.865429095353,814.1845949998257,-5121.030218662632,-11810.795176672647,-1998.938739236518,-1330.420454169539,0
-440.35169126699515,62673.17012984575,9319.268722490591,923.3952118989952,-5262.494400888348,-11749.350234827412,-2014.1379245601845,-1494.772821353246,0
-463.8880767755554,62641.22948892292,9277.314500648648,1005.9849027386249,-5380.980991183578,-11693.247359588586,-2030.3652900675113,-1657.9852496376782,0
-446.9454554882917,62618.76598708427,9116.516060621505,727.2139625080802,-5198.099028950872,-11647.493341415724,-1975.8493885904186,-1502.8641523637864,0
-419.0281283276157,62508.19191385459,8994.542598399077,440.95518833131723,-4896.976345597288,-2929.687674622993,11706.345481058686,177732.947631654,0
46885.7763341532,70162.9710294587,-176148.87959652423,175722.94477957155,-58626.632906593855,140625.00838190367,0.0,1.2516976148901948,0
-12546.905132943699,121579.89272951441,-90026.38399758244,8081.652705767913,-149138.0273782031,-3109.9544829103043,-58943.5359205923,-29087.306802708317,0
-385.9475485055177,62333.71420703615,8859.135738559708,153.82469617275572,-4550.457271960811,-11880.309097785299,-1819.811869848482,-770.2634197630537,0
-385.8134380467795,62298.08552849803,8846.864631585158,155.03169030139983,-4512.951047000351,-11896.827035953225,-1816.7943845268717,-739.4403659963825,0
-390.2167314420183,62311.764795289324,8871.876232139839,263.1470717875404,-4563.600096917158,-11860.39369466267,-1820.0130355365893,-827.5509373874031,0
-391.5578360294006,62351.327380617106,8907.70607636607,395.46939107593244,-4648.55907252783,-11810.214031351448,-1826.4950410422707,-949.6585100685662,0
-393.4353824517359,62402.53522411199,8951.89547252032,537.8723465128152,-4766.241000070632,-11756.972179232369,-1838.117947466251,-1095.6600961482582,0
-404.23127438016377,62378.44004502535,8996.375441335167,681.2364269039884,-4895.81405495489,-11707.70893738919,-1853.9429815973629,-1244.8132780082988,0
-404.8347714444859,62374.17086208885,9033.434631433167,794.984447657135,-5013.026595892107,-11658.311585087275,-1866.6834751774952,-1373.0005248189284,0
-408.67927126164864,62355.93183970045,9062.581304465612,887.4312572140251,-5140.699752610907,-11605.650878289394,-1879.2451548126432,-1502.7747453912941,0
-411.36148043641333,62353.98723804875,9070.359711072428,989.9363511762828,-5281.62749300167,-11544.27299167353,-1898.6017643571952,-1673.0950279888527,0
-428.5276191549074,62330.92023914577,9046.353938958284,1037.6573227439715,-5368.955753383383,-11493.959217903568,-1911.9904584878955,-1792.9003711283428,0
-418.35757603392454,62286.86495345026,9018.16839088013,968.7468986956417,-5341.820737232014,-11478.044776799965,-1903.675610046125,-1767.307625252463,0
-409.461582270955,62270.63758794293,8984.506665736833,846.8181399594629,-5252.883151345442,-11463.784364687464,-1882.0614744461461,-1677.4312661547222,0
-382.6394905233079,62227.87870334856,8942.70890609675,702.2694171827684,-5120.158500680835,-11474.133221753431,-1860.939077194874,-1532.7037294330435,0
-374.41404905402953,62159.147093245214,8896.016114712722,545.0919595415568,-4960.477647809842,-11512.935847815028,-1827.724386914038,-1340.9704769236134,0
-370.3013283193903,62129.888661497156,8862.510851771285,417.73172722647945,-4832.804491091042,-11559.271011309089,-1788.2735603018737,-1187.1457807508575,0
-364.8922064836148,62087.01801818717,8836.918105895405,324.9496415227438,-4717.871827952375,-11604.22036672952,-1764.5360091052062,-1055.5163654992798,0
-353.2916518027575,62048.8188891899,8806.27386607372,220.1870215050591,-4589.192842793038,-11655.316451508788,-1752.1978469012886,-898.5177218030525,0
-354.18572152767905,62024.83546881887,8782.335149188944,134.42338314195771,-4489.660530666144,-11698.254150048146,-1741.9607485509366,-776.6560182962428,0
-363.0146600612795,61991.28550239119,8795.3885671728,175.17061085525816,-4488.811164427469,-11692.241531148049,-1741.5137136884757,-801.5782118784315,0
-348.86600666439574,61980.89194183898,8832.09012938083,289.5221286727267,-4556.335780402171,-11665.844122519738,-1755.327090938514,-890.6499082237427,0
-405.81824814189963,62164.31034590664,365.80862795165945,75133.46225818766,17220.296992081225,187133.8002165437,4756.406233096493,11341.274460630086,0
-399.3809461224643,61677.310566741864,8612.797177600693,73.38077267293767,-4468.426374699257,-11494.920342857858,-1535.0283107178395,-934.0122898824388,0
-432.6403398895466,61714.95090216106,8686.647336879214,320.8369207881046,-4650.526025922658,-11406.452143576867,-1538.2916652138033,-1193.2254548803244,0
-457.27196081113584,61738.599046385236,8739.218636704602,461.2505710870368,-4780.166136036285,-11351.82448338416,-1546.181830536236,-1355.029723348005,0
-461.6976059494976,61738.77786033022,8784.972654877463,581.6594112908489,-4898.429208900286,-11299.431997503758,-1551.6356558582577,-1500.405460620252,0
-461.7199576926206,61731.80411647583,8817.248571947131,668.2947676357488,-5017.228723599239,-11248.604133641966,-1554.4966789780067,-1633.3983322023353,0
-469.09603292322356,61748.32205464376,8850.686779659198,762.7308823305895,-5154.133150227854,-11186.242770328687,-1560.2410769606279,-1797.2142575510893,0
-476.11448026385784,61736.58738950416,8849.8150616774,843.0853988579154,-5271.815077770655,-11126.25069178645,-1567.818317879338,-1963.533578129624,0
-487.8044419172074,61673.39901169533,8809.80544148716,800.6170869241408,-5279.57113263435,-11096.6122804053,-1555.726024849774,-1996.144771346138,0
-481.09891898029565,61637.39035352411,8776.769565151308,683.6951186475228,-5207.822037209394,-11091.292565542017,-1529.7756510839254,-1925.3568008754733,0
-472.4487943916794,61644.38644912162,8742.794915604289,538.6099540358755,-5091.414159024605,-11099.763876185649,-1495.4657253900605,-1794.9790832387853,0
-472.6946635660329,61593.960916636046,8698.31494678944,374.0564211640609,-4931.48743697926,-11125.15545637342,-1456.1043057503882,-1624.189414035643,0
-459.8424112702853,61533.14182359826,8658.640602746047,228.4571664605836,-4790.112661726038,-11177.480887024456,-1409.255052164498,-1456.2160644660034,0
-463.3292831974794,61473.954407808444,8630.410351181648,119.98415708447439,-4674.129466660587,-11218.786908315831,-1364.5962694046657,-1322.9102684801978,0
-462.83754484877255,61417.24803550529,8602.515375764095,17.38965614972449,-4546.076330308696,-11256.740168138753,-1332.0297796743978,-1182.6754321262497,0
-478.93079989736077,61353.38910540277,8569.52420291449,-92.31269909815187,-4429.266120747692,-11305.243450715747,-1307.9793040740074,-1035.600962376652,0
-376.3362989626109,60763.437197413274,8398.645126738853,28.721989913105364,-4306.443292286593,-10957.47267946438,-861.3691247325613,-1264.885143332788,0
0.0,0.0,0.0,0.0,0.0,0.0,0.0,0.0,0
-375.9339675863962,60828.30195595633,8502.424270059124,439.07764190898195,-4616.104341513177,-10831.542958709177,-905.2232447399643,-1660.9580314730424,0
-407.67344282111185,60843.41173430751,8541.428061808827,566.9296125727661,-4730.321748871907,-10777.339981635807,-922.2776247428432,-1796.8789814042436,0
-417.91054117146376,60827.22907228643,8565.813813556064,662.3492039650205,-4846.841385772311,-10731.98829483916,-939.7119843788138,-1917.1537111493176,0
-419.184590529477,60818.444837239076,8584.455167320679,763.4014346242806,-4985.489248364523,-10678.969960151313,-961.9519687862378,-2067.782108055479,0
-427.4323837418785,60793.9249750331,8561.969313738902,847.0640091338163,-5104.288763063476,-10622.576512251884,-986.1365548453662,-2222.009135604449,0
-431.38864227465643,60768.48869135908,8517.84697281402,815.8833274771766,-5116.112835175564,-10594.033336283765,-990.2716273231284,-2245.724335057994,0
-428.4605639255383,60756.17288089829,8477.993814825642,710.3830999364316,-5041.413309658367,-10578.655337015112,-975.5865320912917,-2172.745893761271,0
-416.1894569509898,60702.841621806714,8433.46914252455,581.0782659696499,-4922.88201587689,-10573.648546555552,-954.5088383262657,-2050.9288937407073,0
-392.78718190116774,60631.98659610668,8382.082485084682,432.0591945683476,-4761.5694857579165,-10601.521170229982,-925.6303862112991,-1870.997361600242,0
-383.80178116570596,60574.36380233549,8338.38482727914,299.7145235368326,-4621.78168426643,-10650.180915008837,-882.0221353782496,-1696.542006524921,0
-384.02529859693635,60543.65250728443,8310.378093145971,205.32311232823804,-4504.12210846675,-10686.860125473746,-851.444950785932,-1554.653141179868,0
-384.7852578631197,60481.11233002617,8279.599742865546,119.2465495614141,-4375.443123307415,-10732.1224052979,-842.1913291329938,-1395.2181574832296,0
-385.50051364305693,60410.681987445474,8244.61926487799,24.318696517866645,-4260.1975357650235,-10790.102826959062,-833.183576654409,-1228.7870781890797,0
-384.4499817162741,60369.84535275968,8240.707709831458,18.574298535245568,-4217.081023280682,-10809.79471265046,-834.7034951867756,-1176.7522201986444,0
-394.7317835528722,60377.444945421514,8276.157574424598,127.13671488384693,-4263.1703176003875,-10782.033847691646,-853.5460146394977,-1246.9143418618644,0
-396.2964055714849,60398.410880470925,8322.448034432413,262.09653986075756,-4346.855243853047,-10744.684084933047,-877.618841983011,-1349.7547119709677,0
-406.35468997685257,60396.19805790175,8371.711276275591,404.76771621511676,-4460.200933229979,-10697.11957556722,-904.440933730658,-1478.6572145615348,0
-417.0611749327883,60407.753909096355,8422.38267793552,541.4933288987476,-4586.734151049504,-10647.498705834074,-932.0006330013653,-1615.8522138507492,0
-423.6102356678388,60421.96961772261,8465.923873539201,648.3570127699978,-4699.990433453943,-10600.582397018814,-954.2406174087893,-1732.9529960723517,0
-432.6850433757927,60438.24168671618,8505.32999666512,732.846601775086,-4822.008599162615,-10549.151036092702,-973.0384333752652,-1851.1937171932288,0
-445.403185212802,60461.018112958554,8537.248285844818,832.3118586726104,-4959.717688543658,-10492.265849844565,-996.0160253057494,-2006.6947941002124,0
-452.4663360396824,60490.14243424788,8520.618588961277,882.4915219838334,-5054.846707275314,-10440.163936624762,-1012.779832648029,-2130.4340440293577,0
-533.0443699982386,59915.0544354352,8196.65242413595,109.0318029541852,-4441.157248089149,-10367.6325301905,-735.2158865461282,-1535.5871042959157,0
-531.4573962365029,59910.29351415,8173.317204315496,9.164214680446069,-4320.524890454108,-10401.942455884364,-710.3830999364316,-1404.717648310521,0
-571.6011268854813,59802.96044367316,8121.192939352569,-175.43883177273463,-4117.6381181262805,-10489.851861587276,-677.6824997474253,-1149.706611019767,0
-585.3698006492734,59772.11503816337,8144.975194035483,-110.90934937652048,-4137.575872992031,-10471.12110085017,-675.4473254351213,-1193.6277862565391,0
-575.3115162439058,59768.13642788747,8187.130581565534,3.33040972533284,-4211.314273554937,-10431.245591118668,-681.0129094727581,-1300.804394531512,0
-564.4932725723547,59798.31128110357,8241.37826212515,130.06479323296506,-4311.852414122368,-10379.70247147694,-689.7077375476205,-1434.5348736366554,0
-590.845977714418,59819.76895450169,8362.14473021893,391.5578360294006,-4558.436844255736,-10276.124493844776,-717.0215676439742,-1727.3874120347148,0
-590.9577364300332,59816.39384129011,8408.278728024883,481.881229989602,-4675.4035160186,-10228.358818790843,-727.0351485630958,-1850.9254962757525,0
-589.9966114757425,59817.9361115656,8450.590577756797,575.5126819320132,-4812.799680995922,-10169.618437863495,-739.105089849537,-2004.683137219139,0
-603.9888026707652,59776.69714550359,8452.222255004779,656.4483437805382,-4934.437867071501,-10114.096707945866,-754.3936821456958,-2165.995667338113,0
-618.785656618217,59751.70789669203,8428.082372431896,621.2667001048743,-4952.542779001163,-10083.81009601415,-749.4986504017503,-2201.9596220230833,0
-617.3774968014656,59741.78372274541,8411.363268575862,516.2805626559593,-4882.939450916019,-10070.622567571556,-728.9350467285542,-2136.5360699019475,0
-604.8158171663175,59683.60213539613,8378.461502698749,378.9514529080065,-4773.706482273727,-10079.429154362033,-703.8340392013812,-2006.7842010727047,0
-587.1132366128704,59617.70919666941,8337.267240122988,221.86340223928704,-4621.312297660846,-10114.633149780819,-663.9361777267562,-1829.512526363881,0
-563.3533336730798,59609.10377556705,8304.857212594581,80.19805432546462,-4483.804373967908,-10167.293856578699,-608.4367995522499,-1658.8793193625997,0
-561.6322494526057,59596.095061069434,8281.186716627282,-23.22346110483772,-4367.955289361196,-10207.303476768939,-571.9364030323269,-1528.3451395240509,0
-573.9257081702774,59531.27500601261,8250.765994236826,-116.02789855169645,-4244.953646955111,-10248.989477693407,-549.0929215605809,-1393.4970732627555,0
-582.9781641351083,59463.303355175456,8212.656272212045,-220.38818719316646,-4131.295033174457,-10306.992251097694,-529.1104632085837,-1243.9415600265002,0
-570.6623536743136,59420.38800837922,8201.43569716428,-238.35898866408996,-4086.9938783045936,-10328.561683211426,-515.8558795366215,-1199.4839429547753,0
-555.3067061487857,59408.25101186341,8224.860323957224,-137.7314411241675,-4134.066649321714,-10300.174969445166,-516.1911556834672,-1277.1338985642135,0
-557.139549084875,59427.004124343635,8256.89037185254,-10.326505322844108,-4217.706872088126,-10262.065247420385,-527.2329167862484,-1387.462102619535,0
-555.3737613781548,59455.748465999866,8291.803794610727,124.40980222283615,-4332.907756144271,-10219.216955853519,-542.7450265136378,-1524.0089013581812,0
-568.4271793620097,59501.36837371399,8331.679304342228,257.33561857555026,-4461.720851762345,-10165.192792725134,-558.5700606447494,-1672.5585861538998,0
-571.6681821148504,59511.56076857809,8368.202052605275,369.87664520005256,-4573.747788295018,-10104.48545840296,-570.4164844999602,-1804.836201956046,0
-303.69313381273355,59172.28365971348,7854.402533435972,330.8281499641031,-4624.240376009963,-9762.593195592952,-638.3434318508763,-5859.375349245986,0
167757.78935896093,164548.57078484123,-23425.967897532457,-164341.2360156319,-70924.18199325692,-70350.83743040785,46760.65127615042,-70312.50419095183,0
-277.0498560100708,59073.37719639404,7702.65654937366,71.65968845246366,-4329.398532473953,-9820.797134685345,-577.7478562443171,-1510.620207227481,0
-297.8369771144973,58995.391964637754,7548.697742742165,-116.58669212977244,-4080.3777623401743,-9918.563659105519,-563.8003685355405,-1354.448578026806,0
-306.95648830869726,58939.40084811454,7482.067196492386,-176.77993636011698,-3996.6704843443918,-9961.926040764214,-567.1978334902426,-1231.2010664463678,0
-304.6319070239012,58921.58650884548,7469.460813370992,-103.04153579721068,-4015.177727650268,-9957.567450855222,-579.6030509235293,-1254.3574723218367,0
-302.1732152803669,58943.6253275648,7489.08564383302,25.57039413275684,-4084.870462707905,-9925.447995987415,-593.2152624854601,-1349.866470686583,0
0.0,0.0,0.0,0.0,0.0,0.0,0.0,0.0,0
-298.7533985825419,58974.42602958834,7586.159264216379,325.3519728989585,-4309.125501461357,-9829.424907530838,-612.8177412043656,-1635.1864716521784,0
-297.81462537137423,58964.47950389859,7626.884140186557,458.92598980224074,-4425.511027903022,-9779.155837247123,-614.76234285607,-1782.3727001173913,0
-285.4764631674566,58974.537788303955,7648.520627529659,566.4602259671823,-4539.326103885538,-9726.718647880474,-609.1297035890641,-1920.4617691315275,0
-279.03916114802126,58973.93429123964,7638.97643321612,674.0391656183699,-4673.34715565128,-9663.463214842273,-601.8430353309534,-2084.7917845721117,0
-290.1479774801718,58974.91776793705,7584.751104399627,784.166203985584,-4795.49943181869,-9605.527496667355,-596.5680239539162,-2262.197569739674,0
-272.62421087170907,58949.325022061166,7470.600752270267,776.9242392137193,-4814.923096592611,-9569.921169872354,-569.16478688507,-2322.3237587406493,0
-231.80992792903947,58932.4718077464,7356.204530966552,683.9409878218762,-4745.520934195574,-9553.470286933798,-522.360236785426,-2276.569740567788,0
-205.9936646219292,58911.125893063894,7251.196041774514,561.2299180763911,-4634.991564452145,-9570.167039046708,-472.78407053852504,-2167.157957980511,0
-171.2143523224802,58903.21337599834,7166.594694053811,415.0718697948378,-4478.439955618379,-9601.012444556502,-413.99898612493195,-2012.9085786884175,0
-135.54097029810967,58859.58277342217,7100.455886152738,281.2743354603252,-4327.655096510357,-9639.390387498759,-348.5307305175501,-1877.948753711507,0
-109.30002387166166,58847.937515255064,7052.176121006973,185.8100405818248,-4212.387157224843,-9687.737207873894,-282.9954196807993,-1773.543761583791,0
-98.39237322761853,58808.95607524848,6994.709789437639,103.28740497156411,-4087.284450965193,-9732.86537723931,-239.96831416894878,-1664.802531290205,0
-81.1591792797553,58759.4916677172,6918.445641901829,10.035932662244598,-3968.082604890025,-9794.578540002021,-210.2628475584297,-1533.6201509010882,0
-58.18158734927103,58732.24489285021,6858.520618588961,-1.8104911929661747,-3913.7678691010397,-9831.816544045003,-197.34354003331305,-1483.9545776816951,0
-49.10677964131711,58739.598616337695,6836.995889961475,112.2951574501489,-3950.8717626852845,-9812.348175784837,-202.86442058470374,-1558.5646962264,0
-46.759846613398,58747.44407817388,6820.902634912886,260.9118974752365,-4025.794805633712,-9775.66896531993,-218.04125416524735,-1662.8802813816237,0
-28.54317596812105,58204.654348174,91.5303880888455,-125870.84626381673,109590.10479391245,116272.0242900863,-114808.09687424282,182736.94412332439,0
-36.58980349241516,58006.75201456261,6087.31842561474,186.41353764614686,-3817.3648010113716,-9519.875617019869,-122.040517451794,-1576.937829073538,0
-23.87166165540586,57972.62090281373,6153.904268378274,253.62522921712574,-46875.00279396789,187489.8634844937,28979.303179937793,-184376.93621974805,0
-1961.5442729916736,-4740.067108873553,187421.98124062904,-851.6908199602855,2.5033952297803896,0.0,373.564682815354,-38533.66753659651,0
33285.12062341694,117181.74023519398,146813.37903817766,-11654.400030040742,-117858.41690650086,0.0,0.0,1.2516976148901948,0
54.00181138526269,58110.978192745344,6678.231458558527,857.4575696860295,-4414.625729002102,-9265.110448903468,-310.9798020708443,-2258.062497261911,0
16.182662021080375,58092.739170356945,6736.837729027136,893.4885796003687,-4555.464062420372,-9209.722829444578,-360.89124446459084,-2372.1010906756574,0
0.0,0.0,0.0,0.0,0.0,0.0,0.0,0.0,0
-84.33312680322688,58020.632447042015,6751.858100405819,898.9200531792671,-4682.667832533588,-9158.33617200471,-402.8901697927814,-2486.519663722495,0
-212.6544840725949,57926.5092567509,6750.092312699098,790.4470438031581,-4707.76884006076,-9128.362484476715,-403.69483254521083,-2484.7091725295286,0
-337.82424556161436,57828.5192148995,6752.260431782033,604.5252445057181,-4642.479398398364,-9120.09233952119,-364.2440059330467,-2385.9368196688188,0
-436.9989297985393,57743.80610846318,6759.547100040144,409.55098924344713,-4544.601115262575,-9146.266230718269,-294.77478830664086,-2247.311308819729,0
-495.8063659552554,57677.35437615838,6764.688000958443,221.63988480805665,-4413.73165927718,-9198.099923020596,-208.47470810858655,-2078.3991860389224,0
-515.2076789860535,57632.3603172517,6763.525710316045,71.63733670934062,-4288.450139072546,-9246.580853854468,-145.3757372722469,-1929.1118937201438,0
-491.2689621012784,57609.494484036826,6756.417856002919,-19.66953394827449,-4180.96060639385,-9269.379631839969,-119.69358442387488,-1822.3599685645086,0
-426.3371483288496,57598.94446128276,6729.908688658994,-83.97549891325825,-4063.368085823541,-9289.205627990104,-113.74802075314646,-1703.3592881774478,0
-348.64248923316535,57611.03675431232,6677.091519659251,-154.42819323707778,-3950.648245254054,-9319.7604608393,-115.58086368923567,-1556.9330189784182,0
-274.97114389962815,57653.2144935855,6628.4764783666415,-147.00741452022876,-3903.3966602919495,-9323.157925794001,-125.5273893789881,-1493.0070336465258,0
-200.38337709804637,57736.586495434436,6600.939130839058,-25.011600554680857,-3954.7386142455703,-9281.270759181425,-154.69641415455425,-1556.6871498040648,0
-148.19205690574984,57797.494995444715,6578.095649367312,127.20377011321605,-4045.9113744444476,-9229.079438989129,-190.86153452763168,-1652.062037710073,0
-117.77133451529352,57813.945878383274,6558.984908997113,289.9244600489414,-4167.951891896241,-9174.943517145128,-233.1733842595449,-1768.1569914911383,0
-99.77818130124696,57837.258746460604,6551.675888995879,443.81621145106624,-4308.097321277697,-9122.66278998034,-279.5085477536051,-1893.7737878426187,0
-97.90063487891167,57832.22960425792,6554.738077803736,559.8888134890087,-4435.725774510251,-9078.339283367353,-324.502606660283,-1999.7434019889474,0
-105.81315194446755,57836.72230462565,6577.067469183652,638.9245771720754,-4571.0655791202535,-9038.866105012066,-371.262453273681,-2104.0142836579253,0
-185.09478480188756,57541.18755705282,7310.785788940537,556.6701624792911,-4847.288420634772,-8684.076886420065,-320.88162427435066,-2544.611844099274,0
-172.57780865298562,57555.80559705529,7289.641039946141,479.1096138423451,-4803.233134939262,-8665.860215774788,-308.8116829879095,-2522.0365835450043,0
-143.58759782240378,57507.659942368264,7248.089149480412,366.8144563921962,-4705.48896226221,-8663.692096691853,-288.87392812215853,-2435.9823725213037,0
-103.30975671468715,57471.20424933459,7185.616027451517,231.31818958033261,-4565.209422422017,-8682.668726603313,-266.0751501366585,-2294.6075972680806,0
-61.199072670881314,57449.52305850524,7115.40920230205,88.46819928098913,-4400.56648257771,-8710.049611929036,-238.69426481093555,-2125.9636954047496,0
-45.619907714122995,57409.84871446184,7049.918594951546,-22.37409486616223,-4261.158660719315,-8739.844485512047,-214.10734737559244,-1975.6929263885572,0
-27.47029229821517,57395.23067445937,6997.012018979312,-105.96961414632882,-4137.128838129571,-8779.809402216042,-190.74977581201648,-1840.5989909529085,0
-8.58306935924705,57350.50483647017,6939.836260070578,-208.00532150300273,-4010.7967859981527,-8831.330170114647,-181.49615415907826,-1684.002678632896,0
28.00673413316811,56711.8708319587,6751.858100405819,251.2782961892066,-4134.33487023919,-8247.100308364648,-476.06977677761176,-2019.7258603409448,0
-93750.00558793578,65.3564968917666,56627.87298130232,6663.792232501043,65.73647652485826,-3899.730974419771,-8324.77261571721,-419.69868062130695,0
66.63054624977983,56581.51546606514,6615.5571708415255,-26.196242940201934,-3775.0305995363356,-8365.586898659878,-412.2555501613349,-1612.5888593547857,0
93.34087928181167,56575.90517854125,6580.554341110846,-88.31173707912785,-3689.892809980679,-8408.211672795514,-403.7395360314569,-1496.5833125462123,0
95.62075708036167,56563.96934771355,6582.923625881888,-21.971763489947527,-3696.4642224588524,-8391.380810223865,-405.482971995054,-1527.1381453954068,0
77.40408643508472,56592.289006250445,6608.762240932121,104.91908221954598,-3765.195832562198,-8355.30509682328,-419.743384107553,-1627.609230733468,0
68.82101707583767,56633.01388222062,6645.664968828259,244.8186424266483,-3863.2976331292175,-8312.769729660136,-439.94935989078044,-1753.1589718555792,0
65.71412478173522,56646.894314700025,6690.189641129353,397.503399700129,-3988.0203597557756,-8262.388900660808,-464.1786494361549,-1903.2956304130335,0
64.44007542372199,56648.86126809486,6730.288668292086,532.3514659614244,-4108.652717390819,-8221.172286341924,-488.8549738439902,-2041.1835337390623,0
65.46825560738179,56642.982759653496,6762.9222132517225,634.7895046943131,-4223.048938694533,-8177.966366885088,-508.9938943978485,-2162.2405744934426,0
66.22821487356512,56642.20044864419,6791.018354357383,735.0147208580208,-4352.621993578791,-8120.410628343263,-529.9151259610131,-2307.6386635088124,0
53.10774166034113,56618.70876662187,6774.165140042612,826.366295001882,-4477.255313232858,-8068.800453472165,-557.2736595436131,-2472.303955096242,0
40.09902716273231,56609.05281359272,6734.155519852372,812.9328973849355,-4512.012273789183,-8043.5653354862525,-566.9966678021352,-2527.44570538078,0
54.44884624772348,56593.406593406595,6709.054512325198,716.2839601209139,-4449.136820384074,-8032.635333099086,-553.6750289008038,-2472.348658582488,0
73.82780753539845,56554.96159523496,6679.103176540325,590.4436463382033,-4340.172072659258,-8031.227173282335,-532.8879077963774,-2368.3683495741097,0
81.20388276600139,56524.049134495806,6644.301512497754,444.3303015428961,-4185.118030614735,-8054.450634387173,-508.5245077922647,-2203.770113216049,0
59.67915413851465,56144.18126011975,6720.297439116087,766.1283472852914,-4243.567838881483,-7912.070030693413,-657.4541722210748,-2376.504384070896,0
49.8443871643774,56129.3844061723,6684.422891403608,790.983485638111,-4321.396608435905,-7877.000145733365,-679.1353630504228,-2474.7402950966534,0
47.564509365827405,56056.003633499364,6591.931378360473,577.3455248681024,-4193.38817557026,-7855.453065362755,-659.7564017627479,-2351.89511489243,0
53.890052669647496,56036.22234083548,6542.176398168588,425.5324855764202,-4058.3165918777345,-7861.4209807766065,-638.9469289151984,-2209.939194318008,0
57.68984900056416,55993.44110449798,6489.426284398215,265.8739844485512,-3901.0720790071537,-7896.6696796816395,-607.6097850566974,-2029.2477029113595,0
64.99886900179797,55953.47618779398,6420.739377781116,43.36238165869604,-3671.542028876664,-7983.081518595309,-550.6128400929475,-1735.3222808433939,0
65.80353175422738,55930.431540634134,6386.295341628512,-64.79770331369062,-3551.110836929729,-8025.616885758452,-544.60022119285,-1583.732758982942,0
49.39735230191662,55876.89911585445,6357.014558137331,-145.8898273640768,-3463.335541685554,-8061.424378241562,-543.460282293575,-1464.039174559067,0
50.492587714945536,55851.95457052914,6369.9115139193245,-100.33697487932294,-3471.493927925463,-8051.5672595243,-555.0831887175553,-1478.4784006165505,0
53.71123872466318,55877.502612918775,6413.095081633036,13.053417983854889,-3542.013677478652,-8016.430319334883,-583.2463850525847,-1562.9679896216387,0
47.96684074204211,55941.71917091127,6469.667343477448,143.69935653801898,-3640.4507541925163,-7970.765708134514,-617.5563107464499,-1672.0444960620698,0
34.28757395074212,55920.57442191687,6522.48451247719,284.64944867190417,-3770.292029994251,-7930.3090530818135,-661.2092650657454,-1801.6622544325742,0
26.933850463262228,55896.59100154585,6571.881864779107,411.6520530970128,-3894.925349648318,-7889.204197478544,-711.9253702119213,-1921.5570045445563,0
24.67632440783527,55896.076911454016,6610.617435611333,503.31655164459653,-4011.73555920932,-7849.105170315812,-764.9660566428934,-2023.6374153874765,0
24.43045523348184,55900.41314961989,6642.28985561668,587.5826232184543,-4148.707041067305,-7802.367675445537,-815.5927548165771,-2147.3990170597444,0
13.61221156193087,55872.27230502798,6635.249056532923,669.1888373606704,-4279.777662740807,-7750.399872684471,-865.168921063478,-2295.1663908461564,0
14.282763855622045,55859.33064575974,6606.862342766663,653.3414514864356,-4322.245974674581,-7720.157964239,-892.1698267561094,-2340.473374156557,0
12.986362754485771,55815.9235606148,6580.286120193369,550.6575435791935,-4270.211116684145,-7712.5807233202895,-894.0026696921985,-2274.871008090437,0
19.69188569139753,55790.084945564566,6550.491246610358,417.8211341989716,-4171.751688227158,-7705.226999832809,-881.9774318920036,-2169.1696148615847,0
34.10876000575781,55743.5486163824,6510.012239814534,265.8963361916742,-4026.95709627611,-7708.46800258565,-860.8550346407314,-2026.2302175897491,0
44.39056184235584,55698.956888851935,6469.108549899372,120.87822680939597,-3886.4316872615627,-7737.257047728124,-831.7307133514114,-1870.7514924258885,0
54.158273587123965,55709.03752500043,6442.621734298571,10.52767101095146,-3783.568965409336,-7779.546545716915,-804.4392349981805,-1730.4048973563251,0
51.65487835734358,55682.64011637212,6411.57516310067,-79.79572294924992,-3665.5741134628124,-7802.635896363014,-797.1302149969467,-1595.8250520125061,0
41.79775964008329,55623.51975581167,6365.731737955316,-184.75950865504197,-3549.1662352780245,-7844.210138571867,-804.72980765878,-1434.6689840953939,0
-21.88235651745537,55320.63128475137,6255.336478670626,-187499.98882412844,-49.486759274408776,110623.15765757307,12585.372482858449,784.9261632517674,0
-28.230251564398504,55316.65267447547,6322.794039415958,482.59648576953924,-4151.769229875161,-7499.456852642111,-1078.6727713747484,-1958.0126975782334,0
-34.91342275818722,55340.36787392901,6334.774573729907,581.0112107402808,-4284.650342741629,-7447.176125477322,-1116.2907550508232,-2110.5633443929755,0
-42.200091016297996,55301.29702694994,6297.693031888785,620.1491129487224,-4366.211853397599,-7415.4366502426055,-1148.3655064323846,-2209.179235051825,0
-36.165120373077414,55273.33499630302,6261.192635368862,549.8528808267641,-4336.618145502695,-7403.92550253424,-1155.383953773019,-2174.086998348653,0
-29.07961780307399,55234.13003886521,6222.255898848527,433.5567613575912,-4248.440518882305,-7395.230674459378,-1148.7678378085993,-2078.198020350815,0
-0.8270144955524502,55177.49072179143,6173.462043610933,298.55223289443455,-4116.922862346343,-7402.204418313766,-1137.9719458801715,-1944.7357621631481,0
18.976629911460275,55132.31784893977,6121.382482134251,155.09874553076895,-3960.5724192006837,-7425.025548042389,-1117.229528261991,-1785.568999383986,0
-16.450882938556845,53749.37079843109,5778.484390883707,566.1920050497058,-4040.0105142599655,-6704.472404984975,-1773.588465070037,-1755.1929804797758,0
-36.634506978661236,53697.85003053248,5760.401830697169,602.6476980833828,-4132.949062165562,-6665.6697789233785,-1790.6204933297927,-1864.224783433961,0
-43.921175236772015,53623.64224336399,5704.678935091431,397.9504345625898,-4034.9813720572815,-6651.610532498988,-1769.6769100235051,-1745.3582135056386,0
-47.74332331081172,53555.558833811214,5666.993896185988,249.5572119687326,-3912.918502862364,-6665.066281859057,-1748.1521813960185,-1594.2604299938935,0
-36.656858721784275,53508.55311802346,5627.07368296824,89.29521377654157,-3767.878041736963,-6701.723140580841,-1707.6955263433174,-1409.9032527150662,0
-52.54894808226515,53417.62622699894,5571.820173968087,-138.78197305095034,0.06705522936911758,-254.89927857513896,-161576.10187388075,22160.389850162857,0
-13698.601049101415,-27250.373497627585,-6629.012920201595,-3928.8999991953374,0.0,0.0,0.0,0.0,0
-53.44301780718671,53306.24749101683,5513.750345334432,-340.95348959883984,-3343.0161084542337,-6864.622644461551,-1643.1883956902263,-848.0698375743531,0
-50.55964294431466,53285.370962939916,5526.334376712703,-309.9963253734306,-3348.6487477212395,-6862.40982189237,-1643.1213404608573,-859.8715579433177,0
-55.16410202766073,53326.36405982757,5566.76868002228,-203.42321416277971,-3418.0062066320306,-6835.386564456616,-1657.918194408309,-941.8801034617486,0
-62.182549368295035,53349.52046570303,5610.6451517728065,-84.71310643631854,-3517.3597048139395,-6806.798685002249,-1676.0231063379708,-1042.2170783410716,0
-47.40804716396613,53347.084125702626,5655.393341505131,41.64129743822202,-3647.670367221258,-6767.794893252545,-1696.2067303780752,-1177.5121794648276,0
-55.119398541414654,53354.97429102506,5701.169711421115,154.53995195269297,-3775.4552826556733,-6727.785273062305,-1716.2338922163183,-1306.2582198535333,0
-70.6538600119269,53389.172458003304,5749.650642254987,248.64079050068798,-3890.566759739325,-6679.147880026571,-1732.081278090553,-1421.6602695977847,0
-84.82486515193374,53387.049042406616,5782.418297673363,332.7056963864384,-4024.5207562756987,-6630.44343176147,-1750.6108731395527,-1550.5627721883518,0
-82.90261524335237,53357.097706621746,5788.095640426614,419.0504800707388,-4161.268720702453,-6581.493114322014,-1774.0131481893748,-1707.382601939595,0
-85.76363836310138,53329.44860037855,5764.805124092408,418.2681690614324,-4219.7185289692,-6554.022822023799,-1785.3901854390017,-1773.3202441525605,0
-86.43419065679257,53334.61185303997,5742.296918767507,322.28978409110215,-4175.216208411229,-6538.331898351425,-1774.3260725930973,-1723.6993744194135,0
-63.23308129507788,53328.10749579116,5715.631289221721,197.7235196664047,-4078.9248990371766,-6527.759523854227,-1756.2658641496816,-1627.3857133022377,0
-49.19618661380927,53298.759657070616,5675.733427747096,50.73845688929897,-3939.718242866888,-6540.72353486559,-1737.736269100682,-1476.0867641023854,0
-46.648087897782794,53237.89586054658,5633.175708840829,-95.10666698853177,-3793.023752750382,-6571.144257256046,-1709.3495553344223,-1309.0745394870364,0
-31.91828917969997,53187.09034842791,5602.531469019143,-206.17247856691353,-3683.544914933736,-6611.131525703164,-1685.0085070734326,-1168.8173513899656,0
